4.000396862138126	0.00013921603003030724	1.0144473028138738e-06
4.125396862138126	0.00015130325543750525	7.071789943627238e-07
4.250396862138126	0.00015278478874477776	6.785812224605975e-07
4.375396862138126	0.0001487545005390824	5.552280676844378e-07
4.500396862138126	0.00014249750061205217	5.271470127744156e-07
4.625396862138126	0.00014083466635812043	4.773096753347825e-07
4.750396862138126	0.00013811185938925155	4.501767812385148e-07
4.875396862138126	0.000136490032225013	4.1682612789767306e-07
5.000396862138126	0.00013631125679377956	4.2748869229239614e-07
5.125396862138126	0.00013255549060620374	3.953904337732687e-07
5.250396862138126	0.00012816601170073124	3.7845468023563545e-07
5.375396862138126	0.00012296078211419977	3.6316835532944537e-07
5.500396862138126	0.00011980206805246005	3.445306128550108e-07
5.625396862138126	0.00011539472190785461	3.2913813371320915e-07
5.750396862138126	0.00011405394714216345	3.2343400514287953e-07
5.875396862138126	0.00011256051194490556	3.152769990851892e-07
6.000396862138126	0.00011110470778170661	2.9211491219473136e-07
6.125396862138126	0.00010604493717640604	2.921747277386218e-07
6.250396862138126	0.0001048717198388675	2.763948390501047e-07
6.375396862138126	9.968895214945425e-05	2.7511106164545516e-07
6.500396862138126	0.00010056308110727559	2.578642264806972e-07
6.625396862138126	9.880077929515272e-05	2.689664205962855e-07
6.750396862138126	9.842566002610307e-05	2.460926061680594e-07
6.875396862138126	9.593763656566798e-05	2.5240454614739865e-07
7.000396862138126	9.334332509823695e-05	2.451653992478897e-07
7.125396862138126	9.128184281460436e-05	2.3081827445827972e-07
7.250396862138126	8.828664597894379e-05	2.3143588072036324e-07
7.375396862138126	8.689384568045199e-05	2.167845758874221e-07
7.500396862138126	8.602707307376214e-05	2.20816099451332e-07
7.625396862138126	8.413180129351967e-05	2.029341305927599e-07
7.750396862138126	8.321527648694252e-05	2.1386590663304801e-07
7.875396862138126	8.304289652902892e-05	2.0237277079570124e-07
8.000396862138125	7.908053842402903e-05	2.001718236356822e-07
8.125396862138125	7.804746908854723e-05	1.948594385318771e-07
8.250396862138125	7.607385134217676e-05	1.8950893074959082e-07
8.375396862138125	7.493483001125039e-05	2.0275848769627216e-07
8.500396862138125	7.317515204282912e-05	1.8525770527901757e-07
8.625396862138125	7.079566759744746e-05	1.9639869266073502e-07
8.750396862138125	7.048008647568855e-05	1.82176873987784e-07
8.875396862138125	6.847110073912757e-05	1.8570043109849972e-07
9.000396862138125	6.709955981595728e-05	1.806292155029411e-07
9.125396862138125	6.482168377328686e-05	1.8381827316834708e-07
9.250396862138125	6.403070278900646e-05	1.8106562242712078e-07
9.375396862138125	6.381379784393734e-05	1.8148484418713547e-07
9.500396862138125	6.349796934172277e-05	1.87107050788186e-07
9.625396862138125	6.233500365854422e-05	1.7802736104736928e-07
9.750396862138125	6.070789137277281e-05	1.7937456942172402e-07
9.875396862138125	6.106235294052342e-05	1.807290510097217e-07
10.000396862138125	5.9007152953529385e-05	1.7964455744333604e-07
10.125396862138125	5.787839562894338e-05	1.7409969519251612e-07
10.250396862138125	5.753476181771463e-05	1.7352984580981544e-07
10.375396862138125	5.7795863819721026e-05	1.7503293283268717e-07
10.500396862138125	5.6658570675162574e-05	1.7387293442880335e-07
10.625396862138125	5.518508623716705e-05	1.708614867678803e-07
10.750396862138125	5.502860889517539e-05	1.7215448289532219e-07
10.875396862138125	5.3689380764235856e-05	1.7254638140893506e-07
11.000396862138125	5.293312775689384e-05	1.674026401354063e-07
11.125396862138125	5.2954240352598496e-05	1.740456866503368e-07
11.250396862138125	5.3102882461794855e-05	1.6790423276782762e-07
11.375396862138125	5.262174729347132e-05	1.765144827514743e-07
11.500396862138125	5.1930501529929734e-05	1.6600876024584122e-07
11.625396862138125	5.0800810344493914e-05	1.6697428141096383e-07
11.750396862138125	5.01469330445295e-05	1.6201823216561708e-07
11.875396862138125	4.902768288204484e-05	1.6548680495388272e-07
12.000396862138125	4.8795453057462385e-05	1.6174557626429148e-07
12.125396862138125	4.9858287501122155e-05	1.6968910998601396e-07
12.250396862138125	4.926378661389129e-05	1.6626574874391386e-07
12.375396862138125	4.850506742372476e-05	1.6377596940861805e-07
12.500396862138125	4.7251569699027955e-05	1.6073171232970318e-07
12.625396862138125	4.658371908986025e-05	1.6283336135311472e-07
12.750396862138125	4.6023158615519105e-05	1.602330425416284e-07
12.875396862138125	4.59114133841289e-05	1.5981106545293589e-07
13.000396862138125	4.6364411009804436e-05	1.6059111899968974e-07
13.125396862138125	4.643014433381635e-05	1.5827763393575944e-07
13.250396862138125	4.61551439488402e-05	1.624285211904209e-07
13.375396862138125	4.5758698253277855e-05	1.5853402550870837e-07
13.500396862138125	4.429463720040368e-05	1.5827792740904495e-07
13.625396862138125	4.414880376868685e-05	1.5645082437105972e-07
13.750396862138125	4.442398596016872e-05	1.5951393292978208e-07
13.875396862138125	4.488731517585621e-05	1.58692690314369e-07
14.000396862138125	4.538954761862472e-05	1.6131121448007235e-07
14.125396862138125	4.6801307635464156e-05	1.673771879895054e-07
14.250396862138125	4.61567962173845e-05	1.6076555588166894e-07
14.375396862138125	4.835314039044792e-05	1.699869311991219e-07
14.500396862138125	4.665854827513822e-05	1.5617273414054867e-07
14.625396862138125	4.5478383850511645e-05	1.6207792386944066e-07
14.750396862138125	4.508715114575129e-05	1.5674264227107052e-07
14.875396862138125	4.4743961160623004e-05	1.680987569877405e-07
15.000396862138125	4.335340297806011e-05	1.5275702922168707e-07
15.125396862138125	4.3021441367626536e-05	1.609056969055388e-07
15.250396862138125	4.110854907333647e-05	1.5048287043964058e-07
15.375396862138125	4.049408600881027e-05	1.565486516528284e-07
15.500396862138125	3.987998091285997e-05	1.4831114227050558e-07
15.625396862138125	4.00084603191698e-05	1.5496798555621407e-07
15.750396862138125	3.942131279346445e-05	1.4661248156724556e-07
15.875396862138125	4.0282673762385935e-05	1.5101661557141032e-07
16.000396862138125	3.95959397022906e-05	1.5125188039242766e-07
16.125396862138125	3.854563538027789e-05	1.4644600817460485e-07
16.250396862138125	3.796092611960299e-05	1.4711879709803804e-07
16.375396862138125	3.732976961789155e-05	1.4631701677205116e-07
16.500396862138125	3.783998027119809e-05	1.4719828159302106e-07
16.625396862138125	3.807638107659158e-05	1.5112769104970018e-07
16.750396862138125	3.835375677601756e-05	1.4932007877030432e-07
16.875396862138125	3.818785280866958e-05	1.4923393422869336e-07
17.000396862138125	3.7439400133872676e-05	1.496486959117311e-07
17.125396862138125	3.65088538126581e-05	1.44845615280698e-07
17.250396862138125	3.6065685984016655e-05	1.414362378046847e-07
17.375396862138125	3.594752115920935e-05	1.406196951388049e-07
17.500396862138125	3.637020473405796e-05	1.4686313821388477e-07
17.625396862138125	3.648284260916978e-05	1.4339118303494378e-07
17.750396862138125	3.6233275408751824e-05	1.4837123131607624e-07
17.875396862138125	3.579320396326643e-05	1.433035683577631e-07
18.000396862138125	3.5147380427583296e-05	1.4507988661616147e-07
18.125396862138125	3.4693957392110165e-05	1.412929178900058e-07
18.250396862138125	3.444411538800116e-05	1.42463694613701e-07
18.375396862138125	3.4449456218232356e-05	1.406604167302072e-07
18.500396862138125	3.6013995566658866e-05	1.3847952321409075e-07
18.625396862138125	3.4496928696550065e-05	1.4094945297137905e-07
18.750396862138125	3.459433079096034e-05	1.4546994347182895e-07
18.875396862138125	3.35274563554323e-05	1.3866520112314278e-07
19.000396862138125	3.306128929143874e-05	1.400022574769065e-07
19.125396862138125	3.3036403208906944e-05	1.3862377012305064e-07
19.250396862138125	3.2537685040771806e-05	1.3617432115905342e-07
19.375396862138125	3.333296328874627e-05	1.4129465461588672e-07
19.500396862138125	3.38897749329149e-05	1.419847703458245e-07
19.625396862138125	3.3144776039702124e-05	1.4010728418410454e-07
19.750396862138125	3.3325272081607926e-05	1.4279564085937074e-07
19.875396862138125	3.2310655572163274e-05	1.3963504178684115e-07
20.000396862138125	3.171186056729881e-05	1.294631286402813e-07
20.125396862138125	3.239248676049029e-05	1.3593141161280037e-07
20.250396862138125	3.237071858910833e-05	1.3609794697111562e-07
20.375396862138125	3.2687617359004556e-05	1.4063646325841673e-07
20.500396862138125	3.212578647424697e-05	1.3691761618335957e-07
20.625396862138125	3.174222443803218e-05	1.379562205291603e-07
20.750396862138125	3.071561431035435e-05	1.319153910695554e-07
20.875396862138125	3.119985423438677e-05	1.351314293332528e-07
21.000396862138125	3.0760618249850536e-05	1.3415710560647804e-07
21.125396862138125	3.167986316306983e-05	1.400598912200461e-07
21.250396862138125	3.141440944109902e-05	1.369707303091706e-07
21.375396862138125	3.2065286746686256e-05	1.3569455564245421e-07
21.500396862138125	3.076478733687764e-05	1.3090095255363924e-07
21.625396862138125	3.0728635035361205e-05	1.365056652449556e-07
21.750396862138125	2.971876694240859e-05	1.3025404467044066e-07
21.875396862138125	3.0311294780379134e-05	1.3396480444586393e-07
22.000396862138125	3.0469733335380863e-05	1.3543441394517176e-07
22.125396862138125	3.0984813577186015e-05	1.368827005780453e-07
22.250396862138125	3.0843596997721314e-05	1.3661793077907438e-07
22.375396862138125	2.9911754248135105e-05	1.345793447916551e-07
22.500396862138125	2.9860407096187078e-05	1.3287706757796548e-07
22.625396862138125	2.8806980914787932e-05	1.317641987646558e-07
22.750396862138125	2.9462521217648835e-05	1.2792392470688382e-07
22.875396862138125	2.9865245545556997e-05	1.3333629016856455e-07
23.000396862138125	2.960238955972472e-05	1.2931863922595923e-07
23.125396862138125	2.973170440287816e-05	1.324947000099788e-07
23.250396862138125	2.9475184296046656e-05	1.32123915353417e-07
23.375396862138125	2.871765007715542e-05	1.3019627240716378e-07
23.500396862138125	2.9189499698832393e-05	1.3250990856919372e-07
23.625396862138125	2.9232886431665013e-05	1.3199339318147758e-07
23.750396862138125	3.0680344942141187e-05	1.3774076596785797e-07
23.875396862138125	3.2131014398519094e-05	1.3721683354579826e-07
24.000396862138125	3.287420556555231e-05	1.41456268774488e-07
24.125396862138125	3.485079143159363e-05	1.4078743529606257e-07
24.250396862138125	3.5307291093797774e-05	1.4315348336825897e-07
24.375396862138125	3.515863495501413e-05	1.4245711350609052e-07
24.500396862138125	3.578920127518399e-05	1.4529261314975003e-07
24.625396862138125	3.5678714153788325e-05	1.4469748280494241e-07
24.750396862138125	3.4448106612159326e-05	1.4490119396800423e-07
24.875396862138125	3.208153357500011e-05	1.3747643578906526e-07
25.000396862138125	3.0083068681265824e-05	1.3547221456782756e-07
25.125396862138125	2.8470423795870355e-05	1.2970344765142102e-07
25.250396862138125	2.7489637283688606e-05	1.2986328471621085e-07
25.375396862138125	2.708896114656009e-05	1.2481934427355353e-07
25.500396862138125	2.7664710697057253e-05	1.2589703957037956e-07
25.625396862138125	2.8136927926183093e-05	1.29015550050736e-07
25.750396862138125	2.8269115460027254e-05	1.2701404650262224e-07
25.875396862138125	2.801293475941221e-05	1.2962701481336487e-07
26.000396862138125	2.7819855997623958e-05	1.2812322031723977e-07
26.125396862138125	2.739117962586775e-05	1.2858575106300216e-07
26.250396862138125	2.712059053998744e-05	1.2514855796697134e-07
26.375396862138125	2.7189034414627567e-05	1.2834729342584431e-07
26.500396862138125	2.7221738256413564e-05	1.274676857592292e-07
26.625396862138125	2.7315690719277664e-05	1.2933774454055603e-07
26.750396862138125	2.7233070167722813e-05	1.2698312615103087e-07
26.875396862138125	2.7591839972424692e-05	1.286518124486155e-07
27.000396862138125	2.7241357231632095e-05	1.249866567332141e-07
27.125396862138125	2.654623702142849e-05	1.2358053024083313e-07
27.250396862138125	2.6663139956233243e-05	1.230258542096792e-07
27.375396862138125	2.7005419437678227e-05	1.2810579860734804e-07
27.500396862138125	2.791514579144943e-05	1.29389405602174e-07
27.625396862138125	2.7162970719289932e-05	1.2655861915845714e-07
27.750396862138125	2.7306131863504002e-05	1.301339979407491e-07
27.875396862138125	2.6388056544489877e-05	1.2570302693330075e-07
28.000396862138125	2.626823668109016e-05	1.2664429267088856e-07
28.125396862138125	2.5883980835275883e-05	1.2476272390862502e-07
28.250396862138125	2.6329880288183755e-05	1.2310135358367608e-07
28.375396862138125	2.666627914876191e-05	1.2368584997870752e-07
28.500396862138125	2.6476441666742962e-05	1.2523067271331285e-07
28.625396862138125	2.636197653750934e-05	1.2441263013975342e-07
28.750396862138125	2.5672850374366742e-05	1.219575000105718e-07
28.875396862138125	2.5538331883420677e-05	1.2456389122185506e-07
29.000396862138125	2.5639821067995918e-05	1.224489182665449e-07
29.125396862138125	2.5510663694420665e-05	1.2193782530906026e-07
29.250396862138125	2.633293908088764e-05	1.2936934682227823e-07
29.375396862138125	2.6083406878484265e-05	1.2531557601533064e-07
29.500396862138125	2.607809806042601e-05	1.2637104833097064e-07
29.625396862138125	2.5666795242442133e-05	1.2509824892351155e-07
29.750396862138125	2.509426382126183e-05	1.1661663758932931e-07
29.875396862138125	2.474798269504956e-05	1.2088882449553078e-07
30.000396862138125	2.4861918499153913e-05	1.2105892013504328e-07
30.125396862138125	2.5083919662015054e-05	1.2011365967774817e-07
30.250396862138125	2.503657674191912e-05	1.2522985371326565e-07
30.375396862138125	2.5310639362158753e-05	1.2434995979539592e-07
30.500396862138125	2.464643282868875e-05	1.2203148463957824e-07
30.625396862138125	2.4348461940530794e-05	1.1904808375138861e-07
30.750396862138125	2.4109702756378734e-05	1.2164212683397898e-07
30.875396862138125	2.3613391381050062e-05	1.1899275220177405e-07
31.000396862138125	2.421283354806665e-05	1.197042709775101e-07
31.125396862138125	2.4708766100976837e-05	1.186250073422829e-07
31.250396862138125	2.458752393696134e-05	1.1991488955561528e-07
31.375396862138125	2.4223881376549515e-05	1.1896483523790248e-07
31.500396862138125	2.394001604040786e-05	1.2003816363756134e-07
31.625396862138125	2.3830024539672907e-05	1.172088123351738e-07
31.750396862138125	2.3828530627233945e-05	1.2170092088701355e-07
31.875396862138125	2.3629973316001425e-05	1.1842106530602384e-07
32.000396862138125	2.44223464738162e-05	1.2263403930699846e-07
32.125396862138125	2.4404032687750925e-05	1.213140476801812e-07
32.250396862138125	2.4077132860961677e-05	1.2356024246415365e-07
32.375396862138125	2.335093028446188e-05	1.1810583435295089e-07
32.500396862138125	2.3467107106964412e-05	1.1400937734413584e-07
32.625396862138125	2.2884273827382843e-05	1.1355176968041315e-07
32.750396862138125	2.3221672565248452e-05	1.1674047270868568e-07
32.875396862138125	2.3541753678514872e-05	1.1899947493743469e-07
33.000396862138125	2.3920578873674785e-05	1.1898724078777594e-07
33.125396862138125	2.3557887478231026e-05	1.0829753312203637e-07
33.250396862138125	2.3412403530935042e-05	1.2173174154277078e-07
33.375396862138125	2.3251746990541296e-05	1.2469800017762955e-07
33.500396862138125	2.2888914378049167e-05	1.1678625564060076e-07
33.625396862138125	2.242735747141787e-05	1.1740945598134703e-07
33.750396862138125	2.2957697218458783e-05	1.1919042518103704e-07
33.875396862138125	2.384443142842441e-05	1.1942685104402019e-07
34.000396862138125	2.3493275130445496e-05	1.1724820385617762e-07
34.125396862138125	2.2997242145911704e-05	1.173466147255492e-07
34.250396862138125	2.2735391933227225e-05	1.1769415716446236e-07
34.375396862138125	2.217922069970113e-05	1.1271710469371034e-07
34.500396862138125	2.2454946188305653e-05	1.1680243929359141e-07
34.625396862138125	2.3381725922817963e-05	1.1920146897189275e-07
34.750396862138125	2.3286044402809927e-05	1.1989584213698065e-07
34.875396862138125	2.3565611330753823e-05	1.198868064180868e-07
35.000396862138125	2.2986725305854036e-05	1.201535379646868e-07
35.125396862138125	2.2738384775940837e-05	1.1757581672139108e-07
35.250396862138125	2.1910356463294522e-05	1.1060195654912229e-07
35.375396862138125	2.1950656369783447e-05	1.1203106254680602e-07
35.500396862138125	2.238193337266482e-05	1.1492582430982491e-07
35.625396862138125	2.247379137037825e-05	1.1796168816336161e-07
35.750396862138125	2.2780067628564697e-05	1.1772212463668556e-07
35.875396862138125	2.2511098510074947e-05	1.1619724592623259e-07
36.000396862138125	2.204296712663575e-05	1.1461761580045297e-07
36.125396862138125	2.220701301277228e-05	1.1716823633451711e-07
36.250396862138125	2.1378376889954796e-05	1.1179697776260154e-07
36.375396862138125	2.1791034533645825e-05	1.1514829124572953e-07
36.500396862138125	2.2398470335471045e-05	1.1785567540454277e-07
36.625396862138125	2.233985534863489e-05	1.1427372349707658e-07
36.750396862138125	2.217483880274429e-05	1.135768244771324e-07
36.875396862138125	2.1579174371802446e-05	1.1109273697763616e-07
37.000396862138125	2.1525364499639772e-05	1.1334163776149927e-07
37.125396862138125	2.121636226150067e-05	1.1308198454852049e-07
37.250396862138125	2.149346918490783e-05	1.1410763743075083e-07
37.375396862138125	2.2203344820741138e-05	1.1672882679631444e-07
37.500396862138125	2.2112599136146153e-05	1.162646072265175e-07
37.625396862138125	2.2005868918958897e-05	1.1726336241985714e-07
37.750396862138125	2.1419135711681872e-05	1.1355468942428371e-07
37.875396862138125	2.15359761421874e-05	1.1482955499979863e-07
38.000396862138125	2.051965105486713e-05	1.0789509962575793e-07
38.125396862138125	2.073602104397437e-05	1.0814101000263704e-07
38.250396862138125	2.1857938122330907e-05	1.1443005688738093e-07
38.375396862138125	2.1946362765593775e-05	1.1609232462909988e-07
38.500396862138125	2.1546864453376737e-05	1.1186122382430738e-07
38.625396862138125	2.1888299711222438e-05	1.1521115215931956e-07
38.750396862138125	2.0946153946268567e-05	1.1287668526493193e-07
38.875396862138125	2.0833782978302984e-05	1.1181583107045421e-07
39.000396862138125	2.0707544269428632e-05	1.1072444914647707e-07
39.125396862138125	2.0879526502707654e-05	1.1259613974187783e-07
39.250396862138125	2.1888994015566135e-05	1.1632883265090579e-07
39.375396862138125	2.159115463245753e-05	1.1481246375761132e-07
39.500396862138125	2.1536775396121157e-05	1.1078787515026834e-07
39.625396862138125	2.065890323141747e-05	1.087853251591042e-07
39.750396862138125	2.044326820764722e-05	1.0981485917455552e-07
39.875396862138125	2.056844369615423e-05	1.0996652290899094e-07
40.000396862138125	2.0917762820078422e-05	1.1166348397891876e-07
40.125396862138125	2.113004857586733e-05	1.1354499075267125e-07
40.250396862138125	2.1097079555201532e-05	1.1367845418501528e-07
40.375396862138125	2.1325858522218946e-05	1.1617280104118074e-07
40.500396862138125	2.0613790102241625e-05	1.1243569579739261e-07
40.625396862138125	2.023090655952597e-05	1.1116386135132879e-07
40.750396862138125	1.9843050049716097e-05	1.0900964876668184e-07
40.875396862138125	2.0791904294507475e-05	1.0745780062078847e-07
41.000396862138125	2.126116393081684e-05	1.1249922979992463e-07
41.125396862138125	2.1340686504582828e-05	1.1343248011876062e-07
41.250396862138125	2.1210919044217836e-05	1.1381698964641811e-07
41.375396862138125	2.057369305231844e-05	1.1127419574068517e-07
41.500396862138125	2.0323441990357615e-05	1.0994803778114617e-07
41.625396862138125	2.0132268065702383e-05	1.0975868428099488e-07
41.750396862138125	2.0094564442232094e-05	1.1016882654567708e-07
41.875396862138125	2.1203479871959257e-05	1.1629217830096966e-07
42.000396862138125	2.1132125956119375e-05	1.1433298611660733e-07
42.125396862138125	2.1330843124285544e-05	1.1578153610684587e-07
42.250396862138125	2.0789050857984975e-05	1.0547926595204192e-07
42.375396862138125	2.0341354710232822e-05	1.0867789264794615e-07
42.500396862138125	2.0083624831509467e-05	1.0705520443932518e-07
42.625396862138125	2.0314573670903023e-05	1.1201489490585901e-07
42.750396862138125	2.0850090653601157e-05	1.1344143113501339e-07
42.875396862138125	2.1579111778964548e-05	1.1668817863076809e-07
43.000396862138125	2.1380870099902507e-05	1.1518588085912884e-07
43.125396862138125	2.066150954511991e-05	1.125136947009462e-07
43.250396862138125	2.0294874777056e-05	1.1036018404951426e-07
43.375396862138125	1.9860931247767135e-05	1.0940544829846614e-07
43.500396862138125	1.9769642224069877e-05	1.1026269032952582e-07
43.625396862138125	2.0536272436341662e-05	1.0718094818703717e-07
43.750396862138125	2.0998555096182783e-05	1.1138132277845434e-07
43.875396862138125	2.1299444641169926e-05	1.1360875301499572e-07
44.000396862138125	2.0986021463086664e-05	1.1270597197157043e-07
44.125396862138125	2.0545641711819303e-05	1.110542779848343e-07
44.250396862138125	1.9905681068499557e-05	1.0979531164730427e-07
44.375396862138125	2.0124070627089303e-05	1.1097964321494503e-07
44.500396862138125	2.045948499282446e-05	1.1086424474900327e-07
44.625396862138125	2.111013703519329e-05	1.1598276119687558e-07
44.750396862138125	2.1475311919526222e-05	1.1634652426383636e-07
44.875396862138125	2.103292713184228e-05	1.1441588997526748e-07
45.000396862138125	2.0352138012205533e-05	1.0691236304218472e-07
45.125396862138125	1.9916682513485687e-05	1.0788019483534646e-07
45.250396862138125	1.9659229481792217e-05	1.0718292112493554e-07
45.375396862138125	2.0001118306995785e-05	1.1040236432706724e-07
45.500396862138125	2.0594602160484798e-05	1.1148516393336684e-07
45.625396862138125	2.1104430303648477e-05	1.1512382793299867e-07
45.750396862138125	2.0784730490150587e-05	1.1301057255626802e-07
45.875396862138125	2.0079203472217775e-05	1.1104164474493008e-07
46.000396862138125	1.9664010993343043e-05	1.0736068257877116e-07
46.125396862138125	1.9466433154760147e-05	1.0826888922127884e-07
46.250396862138125	1.988999711516188e-05	1.1120410323116552e-07
46.375396862138125	2.0723384076045115e-05	1.0904929926171522e-07
46.500396862138125	2.079654580739855e-05	1.1197457622332274e-07
46.625396862138125	2.1003147938312644e-05	1.1219924867582709e-07
46.750396862138125	2.0631901307928068e-05	1.1168543973530492e-07
46.875396862138125	2.03678815998906e-05	1.1044897784393942e-07
47.000396862138125	1.955884075022623e-05	1.0737219492683554e-07
47.125396862138125	1.977483975769004e-05	1.0945054802269039e-07
47.250396862138125	2.048820222611255e-05	1.1234552747390774e-07
47.375396862138125	2.1241307819025713e-05	1.171801585737311e-07
47.500396862138125	2.120694122848797e-05	1.1629367277576264e-07
47.625396862138125	2.0786518667500032e-05	1.1457715247562774e-07
47.750396862138125	1.9925130721677328e-05	1.0190716276752091e-07
47.875396862138125	1.9518746171444076e-05	1.0079840383126544e-07
48.000396862138125	1.9521891254866016e-05	1.1345527358311963e-07
48.125396862138125	2.014981201895811e-05	1.0999828296530341e-07
48.250396862138125	2.148110986586386e-05	1.2033715920981355e-07
48.375396862138125	2.107204662955052e-05	1.1172085849244791e-07
48.500396862138125	2.0851608250189952e-05	1.1353374109881489e-07
48.625396862138125	2.010325846818377e-05	1.1090028873976145e-07
48.750396862138125	1.998821531291404e-05	1.0911449702008482e-07
48.875396862138125	1.992585666639883e-05	1.1042688052536662e-07
49.000396862138125	2.0483822841231424e-05	1.1409520260662989e-07
49.125396862138125	2.1364466338042666e-05	1.1243833057606316e-07
49.250396862138125	2.194540928614044e-05	1.1294524476019838e-07
49.375396862138125	2.1757539544408153e-05	1.1306470696496205e-07
49.500396862138125	2.1647935195968024e-05	1.1335551215253362e-07
49.625396862138125	2.154333217800868e-05	1.1255192459386036e-07
49.750396862138125	2.2827723141873392e-05	1.1824661759745351e-07
49.875396862138125	2.3239978935650196e-05	1.1866866587285765e-07
50.000396862138125	2.4185165838631845e-05	1.2320143123077221e-07
50.125396862138125	2.4502248527721098e-05	1.2344524455619427e-07
50.250396862138125	2.3823507547538857e-05	1.213874641435774e-07
50.375396862138125	2.2232018259511e-05	1.1637886219692946e-07
50.500396862138125	2.1144543615856383e-05	1.0974742317919547e-07
50.625396862138125	2.0391803050071518e-05	1.0647626411872335e-07
50.750396862138125	2.0243671522429557e-05	1.0750738247973907e-07
50.875396862138125	2.0967753929020764e-05	1.1380905026085922e-07
51.000396862138125	2.143876823501727e-05	1.1480022022817854e-07
51.125396862138125	2.1215116707960956e-05	1.1524339618861525e-07
51.250396862138125	2.0781733558065294e-05	1.1196138195212251e-07
51.375396862138125	2.0165094307015164e-05	1.0936701204230639e-07
51.500396862138125	2.020185887958487e-05	1.1028076474103555e-07
51.625396862138125	2.020360395670221e-05	1.1039067087450602e-07
51.750396862138125	2.1419924233531327e-05	1.1564491974033702e-07
51.875396862138125	2.1769269321243097e-05	1.1682821464939315e-07
52.000396862138125	2.191472059640532e-05	1.098485685410391e-07
52.125396862138125	2.1184954526162005e-05	1.1029343543683586e-07
52.250396862138125	2.08102798627825e-05	1.1155801520801059e-07
52.375396862138125	2.0628087638628704e-05	1.0973007985602992e-07
52.500396862138125	2.0574990626439538e-05	1.1030145101333924e-07
52.625396862138125	2.126021520207048e-05	1.1441473123685703e-07
52.750396862138125	2.1524407035336987e-05	1.1672562080021624e-07
52.875396862138125	2.1935865424892894e-05	1.1755818237491608e-07
53.000396862138125	2.1535895844513422e-05	1.1616105308769999e-07
53.125396862138125	2.0955329714125738e-05	1.1433771179199948e-07
53.250396862138125	2.0176416468131833e-05	1.092998910265242e-07
53.375396862138125	2.0499322025690376e-05	1.0473160371945565e-07
53.500396862138125	2.155283862929952e-05	1.1314488599015037e-07
53.625396862138125	2.16236032470942e-05	1.1596467599920875e-07
53.750396862138125	2.194182728336569e-05	1.1497168521325438e-07
53.875396862138125	2.1691270049193246e-05	1.1537746381067427e-07
54.000396862138125	2.1232200140931767e-05	1.1287019172171374e-07
54.125396862138125	2.074919788528938e-05	1.1214144463131708e-07
54.250396862138125	2.062949853378021e-05	1.1062864443940931e-07
54.375396862138125	2.080398045313675e-05	1.1342920771516994e-07
54.500396862138125	2.2256462854934733e-05	1.20196383527752e-07
54.625396862138125	2.1924592923924008e-05	1.1776018111718214e-07
54.750396862138125	2.1722264052306695e-05	1.0941713575712753e-07
54.875396862138125	2.1407202811343735e-05	1.1309320697436055e-07
55.000396862138125	2.0735434556907362e-05	1.0908100029835956e-07
55.125396862138125	2.0658910582961776e-05	1.1014992089768604e-07
55.250396862138125	2.1306673140877727e-05	1.1522508586046741e-07
55.375396862138125	2.1846348632781597e-05	1.1550671931975613e-07
55.500396862138125	2.2413408688382314e-05	1.2021067604099187e-07
55.625396862138125	2.206776268186999e-05	1.1606255869604342e-07
55.750396862138125	2.1576855005922397e-05	1.168863610922874e-07
55.875396862138125	2.1147062947847865e-05	1.138255684528505e-07
56.000396862138125	2.0761852307547977e-05	1.1286115834870389e-07
56.125396862138125	2.0876606084279076e-05	1.0603000931620323e-07
56.250396862138125	2.186281294218239e-05	1.1427563168672764e-07
56.375396862138125	2.26876190942881e-05	1.180574472926993e-07
56.500396862138125	2.235517532364094e-05	1.1580660891080277e-07
56.625396862138125	2.1724543745549292e-05	1.1322547733709393e-07
56.750396862138125	2.1510365800659927e-05	1.1409287834463328e-07
56.875396862138125	2.0971431332349405e-05	1.1133773641809204e-07
57.000396862138125	2.093927584363139e-05	1.1271040510585144e-07
57.125396862138125	2.2180514097864815e-05	1.1882153043042921e-07
57.250396862138125	2.2901369798352116e-05	1.210780920199768e-07
57.375396862138125	2.2767627116640647e-05	1.2041139814467235e-07
57.500396862138125	2.2197133141381818e-05	1.1050600558411034e-07
57.625396862138125	2.1795108609320207e-05	1.123444281636508e-07
57.750396862138125	2.0769640279769695e-05	1.0773191471173086e-07
57.875396862138125	2.129790274682069e-05	1.1195630286140508e-07
58.000396862138125	2.1705922427839915e-05	1.149282230438451e-07
58.125396862138125	2.225525453875477e-05	1.1697102094070406e-07
58.250396862138125	2.275931009393379e-05	1.2018601913506264e-07
58.375396862138125	2.2117243873212987e-05	1.166799822886409e-07
58.500396862138125	2.1960494416328513e-05	1.154186078168243e-07
58.625396862138125	2.112142466227308e-05	1.1433199704650785e-07
58.750396862138125	2.1376166989593133e-05	1.1382062002203726e-07
58.875396862138125	2.1501569501965642e-05	1.0948407988985755e-07
59.000396862138125	2.2659821361410297e-05	1.143065869934616e-07
59.125396862138125	2.278266558601931e-05	1.1591567842351998e-07
59.250396862138125	2.239458193070172e-05	1.1547127795709522e-07
59.375396862138125	2.212425285216695e-05	1.1417762155416391e-07
59.500396862138125	2.1703431849942815e-05	1.1625911717416028e-07
59.625396862138125	2.1222984715468625e-05	1.1233810746571276e-07
59.750396862138125	2.1860066203283402e-05	1.1483687014632157e-07
59.875396862138125	2.2508376180101743e-05	1.1928242853783573e-07
60.000396862138125	2.3186016457934006e-05	1.2171346868124142e-07
60.125396862138125	2.3305250679757417e-05	1.2190012390519512e-07
60.250396862138125	2.212664183231432e-05	1.1008688254460463e-07
60.375396862138125	2.1485415261873585e-05	1.0866197365452547e-07
60.500396862138125	2.1571588791297457e-05	1.1023574387446541e-07
60.625396862138125	2.19691826466873e-05	1.1426176326939541e-07
60.750396862138125	2.2545982297039054e-05	1.1787067252736426e-07
60.875396862138125	2.297198146599815e-05	1.1973183801080438e-07
61.000396862138125	2.350266901805657e-05	1.2204116153740898e-07
61.125396862138125	2.2190863885675956e-05	1.171907382036725e-07
61.250396862138125	2.2115066482154523e-05	1.1538470052047362e-07
61.375396862138125	2.152429627758284e-05	1.1442135550087715e-07
61.500396862138125	2.1384744782306758e-05	1.1270280530342554e-07
61.625396862138125	2.2410656327213003e-05	1.1492644270365643e-07
61.750396862138125	2.3772044850772858e-05	1.1712925290888555e-07
61.875396862138125	2.3521893952690458e-05	1.1988334277340494e-07
62.000396862138125	2.2571953392482774e-05	1.1651757432980817e-07
62.125396862138125	2.205684172686896e-05	1.1566647549821218e-07
62.250396862138125	2.152233780060374e-05	1.1464444298595049e-07
62.375396862138125	2.161192864783268e-05	1.1028073204984912e-07
62.500396862138125	2.2281692098149636e-05	1.1867755979448212e-07
62.625396862138125	2.2436535919916202e-05	1.4555989253042253e-07
62.750396862138125	2.401214993086178e-05	1.2053478078788867e-07
62.875396862138125	2.3090304727871104e-05	1.0966203681901529e-07
63.000396862138125	2.2148923380868365e-05	1.0946987302191942e-07
63.125396862138125	2.184111424430875e-05	1.0961188829058603e-07
63.250396862138125	2.2076589274620006e-05	1.1213327110355954e-07
63.375396862138125	2.2558209432069035e-05	1.1673471357312809e-07
63.500396862138125	2.3536937158602365e-05	1.2122782501703784e-07
63.625396862138125	2.3291288306196192e-05	1.2092234381406344e-07
63.750396862138125	2.3510146875119712e-05	1.2070460801397035e-07
63.875396862138125	2.294090809234621e-05	1.1857072817653623e-07
64.00039686213813	2.2046682347231278e-05	1.1504200172484534e-07
64.12539686213813	2.185745181684208e-05	1.1522289325145606e-07
64.25039686213813	2.2328755280964405e-05	1.1714072511193057e-07
64.37539686213813	2.2861591253378837e-05	1.1966139851896395e-07
64.50039686213813	2.38761632256864e-05	1.134531613657171e-07
64.62539686213813	2.321518493657774e-05	1.170604460111448e-07
64.75039686213813	2.2571560237216483e-05	1.1617551520119786e-07
64.87539686213813	2.1817363952533243e-05	1.1239943260753105e-07
65.00039686213813	2.182020827506069e-05	1.1304138407388429e-07
65.12539686213813	2.2186179874293348e-05	1.1541534526138169e-07
65.25039686213813	2.3095066346915465e-05	1.2119929942751232e-07
65.37539686213813	2.3504627852259234e-05	1.2304232992441309e-07
65.50039686213813	2.3560824170247892e-05	1.210126497619765e-07
65.62539686213813	2.3421711084024113e-05	1.2121941235893972e-07
65.75039686213813	2.2254343300275503e-05	1.1758337739082953e-07
65.87539686213813	2.2133323154335102e-05	1.0659021073309268e-07
66.00039686213813	2.2351145391540658e-05	1.1369513718296943e-07
66.12539686213813	2.318565995030395e-05	1.1767702935927432e-07
66.25039686213813	2.4087707204367497e-05	1.219259611575194e-07
66.37539686213813	2.3521492613385214e-05	1.2047106098243685e-07
66.50039686213813	2.316348358312946e-05	1.1731391675120058e-07
66.62539686213813	2.2749502618424784e-05	1.1736374785948939e-07
66.75039686213813	2.1893099800414357e-05	1.143449397144523e-07
66.87539686213813	2.2171114645194598e-05	1.1628811213391008e-07
67.00039686213813	2.2884234221406013e-05	1.1908700442722903e-07
67.12539686213813	2.414407386643588e-05	1.2611697972454269e-07
67.25039686213813	2.4019543627983058e-05	1.1363269564240052e-07
67.37539686213813	2.411539622890744e-05	1.1820278590787056e-07
67.50039686213813	2.2845837387775392e-05	1.1517169272543643e-07
67.62539686213813	2.2658339551100177e-05	1.1490449782870368e-07
67.75039686213813	2.2418133105553226e-05	1.1466663243573858e-07
67.87539686213813	2.3294853698022946e-05	1.1899541765488606e-07
68.00039686213813	2.416241423355378e-05	1.223103771575509e-07
68.12539686213813	2.4927217853545784e-05	1.2698480685461374e-07
68.25039686213813	2.4164114260088727e-05	1.2434272655255692e-07
68.37539686213813	2.37435086503046e-05	1.2025151515689776e-07
68.50039686213813	2.329353210263116e-05	1.2030813776193876e-07
68.62539686213813	2.3095289869868504e-05	1.1076145148281316e-07
68.75039686213813	2.3211089099373277e-05	1.1440143150398166e-07
68.87539686213813	2.4547617752495497e-05	1.2123499989418162e-07
69.00039686213813	2.4354531394859218e-05	1.2083528794793325e-07
69.12539686213813	2.436824445589202e-05	1.2107033967787152e-07
69.25039686213813	2.3500387301566037e-05	1.1895919035323593e-07
69.37539686213813	2.31246215789059e-05	1.1859092177167245e-07
69.50039686213813	2.290142231481224e-05	1.1835399881659664e-07
69.62539686213813	2.309298867432122e-05	1.1981856538175468e-07
69.75039686213813	2.4410410405459642e-05	1.2524583693452695e-07
69.87539686213813	2.4510077153693472e-05	1.2677249269126544e-07
70.00039686213813	2.439124017576099e-05	1.1412113476153895e-07
70.12539686213813	2.3758436127271526e-05	1.167282858920441e-07
70.25039686213813	2.272488484904522e-05	1.1342468909246216e-07
70.37539686213813	2.2389151355191156e-05	1.1402426423249163e-07
70.50039686213813	2.256286240141674e-05	1.1512114003954489e-07
70.62539686213813	2.3232941519875844e-05	1.2027787724226584e-07
70.75039686213813	2.429767597838145e-05	1.2448566604111432e-07
70.87539686213813	2.415036361925289e-05	1.237000898102811e-07
71.00039686213813	2.353138441395909e-05	1.218523244098453e-07
71.12539686213813	2.2876569519790248e-05	1.1782188992345065e-07
71.25039686213813	2.2517177162676746e-05	1.1819918366572438e-07
71.37539686213813	2.2693186745332937e-05	1.0826798567348298e-07
71.50039686213813	2.3320795370141707e-05	1.1416820831124552e-07
71.62539686213813	2.431956094925996e-05	1.2017758554008434e-07
71.75039686213813	2.413079735444697e-05	1.2163095807996342e-07
71.87539686213813	2.3620591035068327e-05	1.200950405233152e-07
72.00039686213813	2.356079606140136e-05	1.217518716072893e-07
72.12539686213813	2.2506307327427383e-05	1.1644118687896912e-07
72.25039686213813	2.2697357372626978e-05	1.1777374887783504e-07
72.37539686213813	2.3075554667943095e-05	1.217338769309616e-07
72.50039686213813	2.438737616209193e-05	1.2343174242190466e-07
72.62539686213813	2.4431955400624608e-05	1.2496387388471498e-07
72.75039686213813	2.4187169725678645e-05	1.1604599230268525e-07
72.87539686213813	2.3338666119365568e-05	1.130350865151883e-07
73.00039686213813	2.2570118780584607e-05	1.1186493168192118e-07
73.12539686213813	2.260565824663078e-05	1.156288309631e-07
73.25039686213813	2.324657503576084e-05	1.1942381562900618e-07
73.37539686213813	2.3901703525515317e-05	1.219966998511181e-07
73.50039686213813	2.465945308376702e-05	1.2521684014413473e-07
73.62539686213813	2.4393535147328986e-05	1.2519386331052483e-07
73.75039686213813	2.2926757247826985e-05	1.1762571328455562e-07
73.87539686213813	2.3071923959941783e-05	1.1824139883171954e-07
74.00039686213813	2.2495056791844323e-05	1.1782362229846647e-07
74.12539686213813	2.2862116296832738e-05	1.1132666051991083e-07
74.25039686213813	2.3680512887269612e-05	1.138867953935332e-07
74.37539686213813	2.446551598298717e-05	1.2269622237770635e-07
74.50039686213813	2.435091188194374e-05	1.2242204899930255e-07
74.62539686213813	2.3489685285893483e-05	1.1955470433101807e-07
74.75039686213813	2.3215703452771847e-05	1.1894389570582576e-07
74.87539686213813	2.235114218498611e-05	1.1651179987521363e-07
75.00039686213813	2.283781890782319e-05	1.1743555492459045e-07
75.12539686213813	2.3417405406272435e-05	1.2052268336716262e-07
75.25039686213813	2.453082177580938e-05	1.2574618620415962e-07
75.37539686213813	2.439391074300797e-05	1.2654629118739328e-07
75.50039686213813	2.402592696006894e-05	1.1692175441630222e-07
75.62539686213813	2.321220685479417e-05	1.1001910847416626e-07
75.75039686213813	2.3077015547736587e-05	1.1430009022130167e-07
75.87539686213813	2.3072348703802516e-05	1.1699799490171868e-07
76.00039686213813	2.3727901842671954e-05	1.2053164107130276e-07
76.12539686213813	2.454733045099677e-05	1.233658808665466e-07
76.25039686213813	2.4173236767889122e-05	1.2334086757364588e-07
76.37539686213813	2.419669998746437e-05	1.2211214757865554e-07
76.50039686213813	2.3314740161753093e-05	1.2030380149605773e-07
76.62539686213813	2.3205505508951354e-05	1.1815424377267867e-07
76.75039686213813	2.2593895066056386e-05	1.1869187264449453e-07
76.87539686213813	2.3049248334883746e-05	1.202571296976477e-07
77.00039686213813	2.4502868716010914e-05	1.1068815985195089e-07
77.12539686213813	2.525837355698701e-05	1.066067368584157e-07
77.25039686213813	2.4796461505162805e-05	1.2342506701460246e-07
77.37539686213813	2.3780796013476054e-05	1.486212670619688e-07
77.50039686213813	2.3780147104866482e-05	1.1643652506756063e-07
77.62539686213813	2.4672667636179164e-05	1.2197463395201918e-07
77.75039686213813	2.7016653347485973e-05	1.2777295217796297e-07
77.87539686213813	3.091108215326536e-05	1.4031226672047845e-07
78.00039686213813	3.69055237572984e-05	1.532867819546244e-07
78.12539686213813	4.200109027141523e-05	1.6705418622130885e-07
78.25039686213813	5.1118226875769725e-05	1.833089598012815e-07
78.37539686213813	7.635101573198074e-05	1.9274353540509954e-07
78.50039686213813	5.35356866620309e-05	1.7374574970451557e-07
78.62539686213813	5.161668676228683e-05	1.7418796101190644e-07
78.75039686213813	4.774756140933951e-05	1.7092425511301161e-07
78.87539686213813	4.813126287740288e-05	1.741362166320529e-07
79.00039686213813	4.046704164289024e-05	1.5916371372063644e-07
79.12539686213813	3.361343843813984e-05	1.4115445975620538e-07
79.25039686213813	2.832205668861384e-05	1.310799014366083e-07
79.37539686213813	2.5132903224304353e-05	1.232834812879473e-07
79.50039686213813	2.3849131252926488e-05	1.2501028219270282e-07
79.62539686213813	2.443227948955051e-05	1.2416578017238923e-07
79.75039686213813	2.765277493719334e-05	1.208824772989287e-07
79.87539686213813	2.7153702255207493e-05	1.249916658871844e-07
80.00039686213813	2.770265398941455e-05	1.2867707889589065e-07
80.12539686213813	2.7227228464587288e-05	1.2559785697393282e-07
80.25039686213813	2.7331572394336817e-05	1.254626559916669e-07
80.37539686213813	2.6554567346023958e-05	1.262458021187096e-07
80.50039686213813	2.719279807249734e-05	1.278532582022793e-07
80.62539686213813	2.8098048227862724e-05	1.373827550217563e-07
80.75039686213813	2.805370982387288e-05	1.3707260680537483e-07
80.87539686213813	2.563742167057609e-05	1.3139450534018968e-07
81.00039686213813	2.443222722211269e-05	1.2323017375608513e-07
81.12539686213813	2.361420955745482e-05	1.0833004066640709e-07
81.25039686213813	2.2946768850219632e-05	1.1076480905612154e-07
81.37539686213813	2.3439562770659904e-05	1.1550507384931167e-07
81.50039686213813	2.4476345196270197e-05	1.215384401314761e-07
81.62539686213813	2.4788696451529304e-05	1.2130788883310572e-07
81.75039686213813	2.4026753069462865e-05	1.2113114692141462e-07
81.87539686213813	2.304043138612039e-05	1.1906126526992092e-07
82.00039686213813	2.2878483813780688e-05	1.2204678996955725e-07
82.12539686213813	2.2709338900339157e-05	1.1987367305627174e-07
82.25039686213813	2.2931102946608518e-05	1.2300139863316212e-07
82.37539686213813	2.377139651041821e-05	1.2476231895063633e-07
82.50039686213813	2.46449673339034e-05	1.1342323964049013e-07
82.62539686213813	2.4453179278340872e-05	1.153490350980849e-07
82.75039686213813	2.364353805990783e-05	1.1522197509806284e-07
82.87539686213813	2.3095874714083258e-05	1.1556174066437787e-07
83.00039686213813	2.2793266473688384e-05	1.1154423346917689e-07
83.12539686213813	2.300356048370824e-05	1.178353474718792e-07
83.25039686213813	2.422092796817354e-05	1.266809885682576e-07
83.37539686213813	2.4867953422387224e-05	1.3053729054532542e-07
83.50039686213813	2.4701570987114015e-05	1.2750737132565177e-07
83.62539686213813	2.3924004599551995e-05	1.2535109601977668e-07
83.75039686213813	2.3476528748019144e-05	1.228380249198939e-07
83.87539686213813	2.26061793232584e-05	1.0613112765506447e-07
84.00039686213813	2.3118668774601007e-05	1.0843801182839701e-07
84.12539686213813	2.3884272408991655e-05	1.1542337142950303e-07
84.25039686213813	2.5010814083385914e-05	1.2213190975009115e-07
84.37539686213813	2.449960693784276e-05	1.1872606909245849e-07
84.50039686213813	2.344721681856815e-05	1.2462935318605363e-07
84.62539686213813	2.32199719685558e-05	1.2119736031644368e-07
84.75039686213813	2.309571899236655e-05	1.2133143855737552e-07
84.87539686213813	2.3148116853312328e-05	1.2027633251135183e-07
85.00039686213813	2.348534428761526e-05	1.2412043445707678e-07
85.12539686213813	2.4880561609851813e-05	1.2920304485547294e-07
85.25039686213813	2.5107034596166842e-05	1.1595947796235272e-07
85.37539686213813	2.4280407968288585e-05	1.1014496644651897e-07
85.50039686213813	2.3964832368038715e-05	1.1104592499688802e-07
85.62539686213813	2.3015120770913285e-05	1.1107275001531307e-07
85.75039686213813	2.369894400356466e-05	1.2138310575015962e-07
85.87539686213813	2.3707383498605503e-05	1.2585941224421588e-07
86.00039686213813	2.5189048271398708e-05	1.296425391749645e-07
86.12539686213813	2.4784224496762517e-05	1.302468020456539e-07
86.25039686213813	2.4541653143186184e-05	1.266751388303523e-07
86.37539686213813	2.3843549113784847e-05	1.2461180126481463e-07
86.50039686213813	2.333968125610315e-05	1.2090340467439486e-07
86.62539686213813	2.270589572400069e-05	1.0721307006801583e-07
86.75039686213813	2.2942232557740977e-05	1.0125000589556784e-07
86.87539686213813	2.437681353104305e-05	1.1333517853478599e-07
87.00039686213813	2.3903144511327236e-05	1.2472073484680376e-07
87.12539686213813	2.425051369068169e-05	1.2550048867180843e-07
87.25039686213813	2.3335510670063862e-05	1.233406196571141e-07
87.37539686213813	2.289172449173138e-05	1.2015204861207418e-07
87.50039686213813	2.2732719455425288e-05	1.218514140164327e-07
87.62539686213813	2.2670997350952634e-05	1.1986515323512027e-07
87.75039686213813	2.3052852693004078e-05	1.2276404920470533e-07
87.87539686213813	2.4051043457015127e-05	1.2527604674427268e-07
88.00039686213813	2.4162592553675276e-05	1.196563896777907e-07
88.12539686213813	2.3908424914038863e-05	9.550237866986965e-08
88.25039686213813	2.2680734562633427e-05	1.1198485395740531e-07
88.37539686213813	2.2501406620181404e-05	1.2058901766171577e-07
88.50039686213813	2.2473890026686885e-05	1.1826233986298348e-07
88.62539686213813	2.323159251393976e-05	1.2545161071933203e-07
88.75039686213813	2.468778693746029e-05	1.2689972855907126e-07
88.87539686213813	2.440660909942495e-05	1.2929848607855726e-07
89.00039686213813	2.42491407881677e-05	1.2596828777475818e-07
89.12539686213813	2.263813309164158e-05	1.2072512076674275e-07
89.25039686213813	2.2906612275228274e-05	1.1948367156102254e-07
89.37539686213813	2.243552967695712e-05	1.1773815404065866e-07
89.50039686213813	2.323651675557669e-05	8.827969378585246e-08
89.62539686213813	2.4442065455346822e-05	1.261779128001064e-07
89.75039686213813	2.3953185549010465e-05	1.2588297778508457e-07
89.87539686213813	2.3472316006225963e-05	1.227504674181088e-07
90.00039686213813	2.2824506890759927e-05	1.221487877513877e-07
90.12539686213813	2.2601005677102874e-05	1.1776949179501035e-07
90.25039686213813	2.2736853048485552e-05	1.2204023859849415e-07
90.37539686213813	2.281096703214074e-05	1.1974467138382614e-07
90.50039686213813	2.4065147399662884e-05	1.2902126977015991e-07
90.62539686213813	2.4361156189710036e-05	1.2539484636915857e-07
90.75039686213813	2.3869273213655623e-05	1.0470087292207237e-07
90.87539686213813	2.3552767708376607e-05	9.857907758371683e-08
91.00039686213813	2.2824883718865437e-05	1.196973932356514e-07
91.12539686213813	2.2659333456312426e-05	1.2017696166416872e-07
91.25039686213813	2.340779038705718e-05	1.2338702596867265e-07
91.37539686213813	2.404477662175948e-05	1.2844402634194757e-07
91.50039686213813	2.4741181112493518e-05	1.284879139973895e-07
91.62539686213813	2.434615737498668e-05	1.2837258312890907e-07
91.75039686213813	2.3520901154811632e-05	1.1517406290518223e-07
91.87539686213813	2.3232271433099434e-05	1.1209985046443995e-07
92.00039686213813	2.2367013691575385e-05	1.714967312655007e-07
92.12539686213813	2.3147188737329402e-05	9.283490812548617e-08
92.25039686213813	2.412931856445011e-05	1.0436404184168781e-07
92.37539686213813	2.4754999034949667e-05	1.2797255039905664e-07
92.50039686213813	2.431919153965087e-05	1.2804008783442242e-07
92.62539686213813	2.4141607138938223e-05	1.2431911564707188e-07
92.75039686213813	2.320621311422642e-05	1.223210741659896e-07
92.87539686213813	2.311165811671226e-05	1.2018427586442646e-07
93.00039686213813	2.3046795915630728e-05	1.226327187723139e-07
93.12539686213813	2.3735111211653014e-05	1.2300792371671658e-07
93.25039686213813	2.4233599276821282e-05	1.2770632040513786e-07
93.37539686213813	2.4503729520982803e-05	1.1398439802057314e-07
93.50039686213813	2.4307967222758093e-05	1.0902736026948305e-07
93.62539686213813	2.3873313384019432e-05	1.0507807605642857e-07
93.75039686213813	2.343535088010671e-05	1.200109776176347e-07
93.87539686213813	2.337373026091126e-05	1.220930768233037e-07
94.00039686213813	2.5200258206817384e-05	1.2596508127762408e-07
94.12539686213813	2.694639505816844e-05	1.373244120572335e-07
94.25039686213813	2.7655036011766752e-05	1.3431264711731444e-07
94.37539686213813	2.786202004499372e-05	1.388061079819813e-07
94.50039686213813	2.6949937788076688e-05	1.294817410540506e-07
94.62539686213813	2.636222111065964e-05	1.2223741574242126e-07
94.75039686213813	2.6313508799334933e-05	1.1696972446346567e-07
94.87539686213813	2.6561303807080183e-05	1.1650254946506216e-07
95.00039686213813	2.942662653383716e-05	1.2115263793026958e-07
95.12539686213813	2.7925306300401324e-05	1.3467404925773412e-07
95.25039686213813	2.670108457263221e-05	1.341119747839093e-07
95.37539686213813	2.5721189948678622e-05	1.2592248705402752e-07
95.50039686213813	2.5028416697718226e-05	1.283846225152055e-07
95.62539686213813	2.4832547502784045e-05	1.2316453120129166e-07
95.75039686213813	2.4360762998152937e-05	1.2647818892080935e-07
95.87539686213813	2.531839094565583e-05	1.2111013172531368e-07
96.00039686213813	2.6651826512231878e-05	1.275908235279086e-07
96.12539686213813	2.7178101094628345e-05	1.2469249262724725e-07
96.25039686213813	2.7595689233826753e-05	1.2020642942819062e-07
96.37539686213813	3.8460298797122835e-05	1.329453878520311e-07
96.50039686213813	4.617627853133689e-05	1.685299312031615e-07
96.62539686213813	5.831708410743792e-05	1.9701942472094926e-07
96.75039686213813	7.440064520711958e-05	2.1997204174371446e-07
96.87539686213813	9.146635603931288e-05	2.485856775181976e-07
97.00039686213813	0.00010671151867798209	2.634603360603739e-07
97.12539686213813	0.00010953208840815641	2.600898014295889e-07
97.25039686213813	0.00011464157596243655	2.510612835963476e-07
97.37539686213813	0.00011154970227207693	2.5421763617603506e-07
97.50039686213813	0.00010935181560386041	2.4547732890750305e-07
97.62539686213813	0.00010159200017310273	2.3701604489470845e-07
97.75039686213813	0.00014708172777012685	2.6896035651436294e-07
97.87539686213813	9.651525089162325e-05	2.482014139237709e-07
98.00039686213813	8.006831099066003e-05	2.3184551501395162e-07
98.12539686213813	6.192571203914146e-05	1.9549423757747517e-07
98.25039686213813	4.714370504419937e-05	1.751428964122409e-07
98.37539686213813	3.7691231533102236e-05	1.4932520410972139e-07
98.50039686213813	3.313339450638074e-05	1.4163839031625015e-07
98.62539686213813	3.0558807450437765e-05	1.3497964545880674e-07
98.75039686213813	2.8394531063259563e-05	1.3177145115039612e-07
98.87539686213813	2.6218536729555927e-05	1.2239098245978594e-07
99.00039686213813	2.485297297490591e-05	1.1687011321262836e-07
99.12539686213813	2.4600024585021574e-05	1.0802792501118062e-07
99.25039686213813	2.3689381314719847e-05	1.212800513916974e-07
99.37539686213813	2.4176480113632384e-05	1.269583316114125e-07
99.50039686213813	2.541232165735632e-05	1.288571797851019e-07
99.62539686213813	2.5229030568659995e-05	1.2890422757238419e-07
99.75039686213813	2.537748863274704e-05	1.2404377334832887e-07
99.87539686213813	2.4862627101153798e-05	1.2248045391926328e-07
100.00039686213813	2.3984846795362667e-05	1.1744303510879157e-07
100.12539686213813	2.4095902911339238e-05	1.1640125332734107e-07
100.25039686213813	2.4895757843900686e-05	1.2031570083604892e-07
100.37539686213813	2.6196532700628046e-05	1.228476942805183e-07
100.50039686213813	2.791049826697411e-05	1.178004251786633e-07
100.62539686213813	2.7145199917114274e-05	1.3037625247601999e-07
100.75039686213813	2.6080748232509233e-05	1.3041841405952475e-07
100.87539686213813	2.476483638237227e-05	1.224093496815572e-07
101.00039686213813	2.4371972340618938e-05	1.2065776401278799e-07
101.12539686213813	2.4558352190632236e-05	1.2065546507207696e-07
101.25039686213813	2.49318485239907e-05	1.2274403443276448e-07
101.37539686213813	2.598184233094706e-05	1.2783126569021315e-07
101.50039686213813	2.5225441954994154e-05	1.2359622733510079e-07
101.62539686213813	2.456018923274795e-05	1.1888014549035899e-07
101.75039686213813	2.381312255190291e-05	1.1473039788353024e-07
101.87539686213813	2.3609195925955443e-05	1.1011914732755806e-07
102.00039686213813	2.3536513202729028e-05	1.159955004686687e-07
102.12539686213813	2.3976266176883776e-05	1.2511929872984334e-07
102.25039686213813	2.5050711253615113e-05	1.2511600427540483e-07
102.37539686213813	2.476453811134088e-05	1.2325853311749772e-07
102.50039686213813	2.5448285992608533e-05	1.2537774952426992e-07
102.62539686213813	2.4131859361172727e-05	1.210746902033999e-07
102.75039686213813	2.4230563398478505e-05	1.181065679076903e-07
102.87539686213813	2.3737400790417967e-05	1.1801475928532658e-07
103.00039686213813	2.4311006582234423e-05	1.2005911130191453e-07
103.12539686213813	2.5702610629373758e-05	1.22575576045995e-07
103.25039686213813	2.5667114102076085e-05	1.193573986620275e-07
103.37539686213813	2.5910537076318936e-05	1.19411004480595e-07
103.50039686213813	2.4693864914652342e-05	1.232783909264e-07
103.62539686213813	2.5090485520039028e-05	1.2231841422448082e-07
103.75039686213813	2.4994944106492025e-05	1.2210100748476706e-07
103.87539686213813	2.5882846856293736e-05	1.2370833602366595e-07
104.00039686213813	2.6802561659000167e-05	1.2939946271740714e-07
104.12539686213813	2.74357103914159e-05	1.3003436552706372e-07
104.25039686213813	2.717532684112415e-05	1.2938431602647054e-07
104.37539686213813	2.6339763523733936e-05	1.232877773800593e-07
104.50039686213813	2.5937921138136967e-05	1.210968724846866e-07
104.62539686213813	2.6076745605750435e-05	1.1871353323763349e-07
104.75039686213813	2.654779601906518e-05	1.1785990313358198e-07
104.87539686213813	2.673934400903921e-05	1.3000499288839275e-07
105.00039686213813	2.6868624669476286e-05	1.2877192099107287e-07
105.12539686213813	2.6272710708125887e-05	1.2910929582009604e-07
105.25039686213813	2.5713041486053e-05	1.2521364265500703e-07
105.37539686213813	2.449762240732261e-05	1.2117146706822664e-07
105.50039686213813	2.434004533550596e-05	1.1879413323358718e-07
105.62539686213813	2.3890319289136136e-05	1.1844174408944152e-07
105.75039686213813	2.5082839535940737e-05	1.2245734439461142e-07
105.87539686213813	2.582487417144424e-05	1.246255804576244e-07
106.00039686213813	2.5825987433907638e-05	1.1898092409254902e-07
106.12539686213813	2.741047399691196e-05	1.1764151930005133e-07
106.25039686213813	2.7396026423886428e-05	1.280537720624844e-07
106.37539686213813	2.9362273633941522e-05	1.2435056748857863e-07
106.50039686213813	3.421940095907693e-05	1.412109209296776e-07
106.62539686213813	3.1629933070376305e-05	1.8025460812870076e-07
106.75039686213813	4.2251742925445e-05	1.4874055196853501e-07
106.87539686213813	4.789528372169233e-05	1.634660842145625e-07
107.00039686213813	4.830792973652626e-05	1.738268954000617e-07
107.12539686213813	5.001141854242033e-05	1.70949489616671e-07
107.25039686213813	5.137021079225858e-05	1.6733411552441528e-07
107.37539686213813	5.8195735518143916e-05	1.7493558780403635e-07
107.50039686213813	7.122038502006566e-05	1.9149001302386414e-07
107.62539686213813	5.514850556582004e-05	1.8804063129448524e-07
107.75039686213813	5.209553912497585e-05	1.7976273768861904e-07
107.87539686213813	4.850145640612261e-05	1.7363302245591898e-07
108.00039686213813	4.565335437426631e-05	1.6508810766177344e-07
108.12539686213813	4.1184408065994777e-05	1.5586965262164853e-07
108.25039686213813	3.745101817850838e-05	1.4773146156261775e-07
108.37539686213813	3.2408265575212096e-05	1.3821569788199882e-07
108.50039686213813	3.1303900697177285e-05	1.3584607889331586e-07
108.62539686213813	2.8833051315664052e-05	1.2871897908778594e-07
108.75039686213813	2.8021547234660694e-05	1.255864707023305e-07
108.87539686213813	2.6304666089574493e-05	1.1446986155461635e-07
109.00039686213813	2.394533675176381e-05	1.1919595337852523e-07
109.12539686213813	2.3631991582704785e-05	1.1861602366603177e-07
109.25039686213813	2.3544206612693575e-05	1.1904685991483026e-07
109.37539686213813	2.500772172781724e-05	1.2364162274202216e-07
109.50039686213813	2.540607925100862e-05	1.2686083321017888e-07
109.62539686213813	2.4973148213020226e-05	1.2331253649462637e-07
109.75039686213813	2.408015482966724e-05	1.1930228523859208e-07
109.87539686213813	2.379977979925076e-05	1.1725594530295416e-07
110.00039686213813	2.3724649431384902e-05	1.1474983323653854e-07
110.12539686213813	2.362117724531137e-05	1.1367244217085062e-07
110.25039686213813	2.4390632849106563e-05	1.1092382311866991e-07
110.37539686213813	2.495731169473103e-05	1.2671135125466448e-07
110.50039686213813	2.4995054469489344e-05	1.2403615278186123e-07
110.62539686213813	2.421801853813476e-05	1.222119535516467e-07
110.75039686213813	2.385083420276502e-05	1.1923032733248834e-07
110.87539686213813	2.3105697205986032e-05	1.1600654800320602e-07
111.00039686213813	2.265510138034568e-05	1.1282650463504543e-07
111.12539686213813	2.365004153114902e-05	1.1694478840572693e-07
111.25039686213813	2.43269222554564e-05	1.1900537320989131e-07
111.37539686213813	2.382113588614e-05	1.1632251587217628e-07
111.50039686213813	2.3758023330202894e-05	1.1370208766874307e-07
111.62539686213813	2.3182513915080284e-05	1.0525226808083138e-07
111.75039686213813	2.2784138758609096e-05	1.1616097131256555e-07
111.87539686213813	2.2791024863598155e-05	1.158069169399302e-07
112.00039686213813	2.3361181844131735e-05	1.1877611682443746e-07
112.12539686213813	2.4512917397700343e-05	1.2242846100364173e-07
112.25039686213813	2.4463034727404657e-05	1.213318208139507e-07
112.37539686213813	2.416762926646536e-05	1.194705687288216e-07
112.50039686213813	2.3770098257408474e-05	1.1827822628315093e-07
112.62539686213813	2.3352051063612664e-05	1.1520679654368355e-07
112.75039686213813	2.3391446305533827e-05	1.1435250115995272e-07
112.87539686213813	2.3366571960564725e-05	1.1438134534003528e-07
113.00039686213813	2.4672173901006232e-05	1.1397655956959812e-07
113.12539686213813	2.5203171872927683e-05	1.245790284712481e-07
113.25039686213813	2.4833880009334643e-05	1.2360825619213765e-07
113.37539686213813	2.4398569913508797e-05	1.2432563804394408e-07
113.50039686213813	2.3624393521550777e-05	1.1760709352290644e-07
113.62539686213813	2.3732430575566218e-05	1.1793030753597405e-07
113.75039686213813	2.445210059601371e-05	1.2039673954181484e-07
113.87539686213813	2.5187736509198713e-05	1.2489240770260433e-07
114.00039686213813	2.5613344775670897e-05	1.2392409516257166e-07
114.12539686213813	2.5542847900364443e-05	1.2159263618157742e-07
114.25039686213813	2.527557234924466e-05	1.2001474387317088e-07
114.37539686213813	2.5348164426835695e-05	1.1696841357333342e-07
114.50039686213813	2.522678084704917e-05	1.1916405921048796e-07
114.62539686213813	2.5013101951686845e-05	1.223474712898509e-07
114.75039686213813	2.520717289713577e-05	1.2489056165836525e-07
114.87539686213813	2.664395949326469e-05	1.275020342708907e-07
115.00039686213813	2.61459860474349e-05	1.2644640630011728e-07
115.12539686213813	2.6207366012212073e-05	1.2496569942048553e-07
115.25039686213813	2.5733913366606048e-05	1.2377081193843316e-07
115.37539686213813	2.5313329509260057e-05	1.21080379493596e-07
115.50039686213813	2.481577193989317e-05	1.1901809337414245e-07
115.62539686213813	2.5974095662085172e-05	1.2292202441597174e-07
115.75039686213813	2.6977267002712115e-05	1.229929651860424e-07
115.87539686213813	2.7517408538941847e-05	1.2664304158780687e-07
116.00039686213813	2.614269948348827e-05	1.2635517520364842e-07
116.12539686213813	2.587426403221375e-05	1.254407487655821e-07
116.25039686213813	2.524013406043564e-05	1.2027842312189007e-07
116.37539686213813	2.5207842963019447e-05	1.2234222563595294e-07
116.50039686213813	2.612687142508901e-05	1.239298581972826e-07
116.62539686213813	2.6654672750058643e-05	1.2828096293936282e-07
116.75039686213813	2.700510106776897e-05	1.2770403544560022e-07
116.87539686213813	2.6748660438640485e-05	1.2616590884192836e-07
117.00039686213813	2.630040065672982e-05	1.2250646563535832e-07
117.12539686213813	2.567698437815608e-05	1.1745607975226075e-07
117.25039686213813	2.5513508301586027e-05	1.1800811965803155e-07
117.37539686213813	2.4780719565272902e-05	1.207179357203102e-07
117.50039686213813	2.5749746352782197e-05	1.2668474827282456e-07
117.62539686213813	2.6745894029571873e-05	1.2895316680917544e-07
117.75039686213813	2.5658061952106433e-05	1.2487190434594086e-07
117.87539686213813	2.5258154516434232e-05	1.212947365197569e-07
118.00039686213813	2.474818336014696e-05	1.214109370478478e-07
118.12539686213813	2.418742727974771e-05	1.1787950763228743e-07
118.25039686213813	2.4761152624978037e-05	1.208825096377216e-07
118.37539686213813	2.5609027437825332e-05	1.2284096742032178e-07
118.50039686213813	2.609084442470763e-05	1.2136458017325864e-07
118.62539686213813	2.6363274328043966e-05	1.209362682177181e-07
118.75039686213813	2.5453864985865996e-05	1.2257993762276966e-07
118.87539686213813	2.4678126310514487e-05	1.231737288328755e-07
119.00039686213813	2.4232951029655615e-05	1.1867354065924129e-07
119.12539686213813	2.468433314647389e-05	1.2049312348052466e-07
119.25039686213813	2.53412533366807e-05	1.2451539289555371e-07
119.37539686213813	2.6558977663086517e-05	1.2839566474734316e-07
119.50039686213813	2.6478707433054102e-05	1.2590791737102606e-07
119.62539686213813	2.562053970385245e-05	1.2394149941736055e-07
119.75039686213813	2.544931631902257e-05	1.19584518558844e-07
119.87539686213813	2.531522054153431e-05	1.1897148804282919e-07
120.00039686213813	2.5757982683748187e-05	1.1571976625707888e-07
120.12539686213813	2.596730281809759e-05	1.245094121006346e-07
120.25039686213813	2.6249512397417592e-05	1.2765967991730563e-07
120.37539686213813	2.697081968472275e-05	1.2908245040953366e-07
120.50039686213813	2.711859311399979e-05	1.2965167333900493e-07
120.62539686213813	2.6506133186223646e-05	1.2546658200552238e-07
120.75039686213813	2.574367172950348e-05	1.23751921399476e-07
120.87539686213813	2.589059595591608e-05	1.2135431750480443e-07
121.00039686213813	2.6190067256767743e-05	1.1611280973416468e-07
121.12539686213813	2.7585562808954437e-05	1.218466883491219e-07
121.25039686213813	2.828423483180407e-05	1.3637015267849337e-07
121.37539686213813	2.706144963668794e-05	1.1705593913598491e-07
121.50039686213813	2.6155452855361198e-05	1.404928523285506e-07
121.62539686213813	2.553500577911147e-05	1.3328801340088636e-07
121.75039686213813	2.601814927685264e-05	1.1830465290342568e-07
121.87539686213813	2.5836558857348922e-05	1.2199820653955762e-07
122.00039686213813	2.7045153172314472e-05	1.2823081747926498e-07
122.12539686213813	2.7061812479092286e-05	1.2933735098951436e-07
122.25039686213813	2.7381353971189844e-05	1.2823759380675425e-07
122.37539686213813	2.6498675989013107e-05	1.2391897715779367e-07
122.50039686213813	2.6025176744388465e-05	1.208957369572904e-07
122.62539686213813	2.5984719531093253e-05	1.2188657331098724e-07
122.75039686213813	2.6531023435620043e-05	1.169982918607939e-07
122.87539686213813	2.7220804045768473e-05	1.284586254088575e-07
123.00039686213813	2.7896052950970142e-05	1.3279619655240383e-07
123.12539686213813	2.8233528297673236e-05	1.324612980029793e-07
123.25039686213813	2.777591844527405e-05	1.3083231122615095e-07
123.37539686213813	2.7001798739699142e-05	1.2481719235201303e-07
123.50039686213813	2.7726883872663314e-05	1.2735379548913547e-07
123.62539686213813	2.933493220497437e-05	1.3135146683877177e-07
123.75039686213813	3.0860496086080695e-05	1.34112704613662e-07
123.87539686213813	3.365988737681403e-05	1.436529737296452e-07
124.00039686213813	3.69458723993243e-05	1.4548776488283619e-07
124.12539686213813	4.722347400669071e-05	1.549727307478184e-07
124.25039686213813	4.829103542744057e-05	1.6961564044579357e-07
124.37539686213813	4.9872637869440705e-05	1.7330474696555674e-07
124.50039686213813	5.535633442115425e-05	1.8188470534791675e-07
124.62539686213813	5.948933525405943e-05	1.887105476616905e-07
124.75039686213813	7.249494158596355e-05	2.1144539674241327e-07
124.87539686213813	7.374891847760502e-05	2.0909503477651068e-07
125.00039686213813	7.992921666364681e-05	2.1839317451019533e-07
125.12539686213813	7.449328063396005e-05	2.0785729042790262e-07
125.25039686213813	8.307707748132778e-05	2.2029308922725908e-07
125.37539686213813	8.735799101403227e-05	2.2021934393545881e-07
125.50039686213813	0.00010435453203367392	2.374074082193287e-07
125.62539686213813	9.310374373926999e-05	2.3321310874541433e-07
125.75039686213813	7.722167979041119e-05	2.1960675591955234e-07
125.87539686213813	7.672821861919611e-05	2.155576202009022e-07
126.00039686213813	7.340786289490249e-05	2.0910611626112807e-07
126.12539686213813	7.319667249957576e-05	2.0675706263479292e-07
126.25039686213813	6.5301038818312e-05	1.946269470074044e-07
126.37539686213813	6.13924670418782e-05	1.9068650452494215e-07
126.50039686213813	5.4414414885183735e-05	1.80598479849465e-07
126.62539686213813	5.3600148658745404e-05	1.794122736460169e-07
126.75039686213813	5.112492406132522e-05	1.713480332609173e-07
126.87539686213813	4.730268358245854e-05	1.6286694092127869e-07
127.00039686213813	3.858539364580103e-05	1.4411788440301946e-07
127.12539686213813	3.268207647433206e-05	1.397039935566213e-07
127.25039686213813	3.1872058682760476e-05	1.373412935118365e-07
127.37539686213813	3.1307403150076084e-05	1.372894048267857e-07
127.50039686213813	3.080253492182805e-05	1.3766642138626738e-07
127.62539686213813	2.9844672104252896e-05	1.3451326889875728e-07
127.75039686213813	2.8518039817608626e-05	1.3023293756781702e-07
127.87539686213813	2.761337745558901e-05	1.276333375708003e-07
128.00039686213813	2.6761984941748922e-05	1.231507147850072e-07
128.12539686213813	2.7035020169549226e-05	1.2325626959109818e-07
128.25039686213813	2.758694211572052e-05	1.2404295890485287e-07
128.37539686213813	2.8034486600130936e-05	1.2511282238865652e-07
128.50039686213813	2.7948760513165637e-05	1.3237832341344277e-07
128.62539686213813	2.7553547265517848e-05	1.2868185727436196e-07
128.75039686213813	2.7285682001162833e-05	1.2789195542390784e-07
128.87539686213813	2.705872373861397e-05	1.2625667800036744e-07
129.00039686213813	2.7368735904649843e-05	1.2923590805171604e-07
129.12539686213813	2.725550614274383e-05	1.273746949261569e-07
129.25039686213813	2.843092068205721e-05	1.3242461683259665e-07
129.37539686213813	2.834838400137462e-05	1.298255537328558e-07
129.50039686213813	2.8156024620747206e-05	1.277327774810546e-07
129.62539686213813	2.7853498075298334e-05	1.2337849557106996e-07
129.75039686213813	2.7676470684687536e-05	1.2032338340528335e-07
129.87539686213813	2.7663083171832356e-05	1.303413178091423e-07
130.00039686213813	2.8187647118327527e-05	1.3081699267667246e-07
130.12539686213813	2.9072388673699988e-05	1.3348181655008088e-07
130.25039686213813	2.9741342515681838e-05	1.3580380120071855e-07
130.37539686213813	2.9869138709694923e-05	1.360558443460179e-07
130.50039686213813	2.9286341633192683e-05	1.3096333429563912e-07
130.62539686213813	2.869952088778454e-05	1.303877286219432e-07
130.75039686213813	2.841764109581696e-05	1.274859330550838e-07
130.87539686213813	2.9030172100304624e-05	1.2925169368563915e-07
131.00039686213813	3.018038386326112e-05	1.308596280811775e-07
131.12539686213813	3.05857714638561e-05	1.301864055187152e-07
131.25039686213813	3.058533086904146e-05	1.3802826037917365e-07
131.37539686213813	2.9984394672622068e-05	1.3436598347959108e-07
131.50039686213813	2.9194013702905417e-05	1.308504094198175e-07
131.62539686213813	2.8928927140486442e-05	1.30602307998864e-07
131.75039686213813	2.923606097301859e-05	1.3242958166297607e-07
131.87539686213813	2.9860661396313828e-05	1.3242531854908825e-07
132.00039686213813	3.079278982571837e-05	1.3709400139340453e-07
132.12539686213813	3.0500509969185573e-05	1.3584120403156852e-07
132.25039686213813	2.983425991087633e-05	1.2961375563875085e-07
132.37539686213813	2.9162705739218855e-05	1.2807671735237616e-07
132.50039686213813	2.8680253180445023e-05	1.2214652247976695e-07
132.62539686213813	2.914437441077879e-05	1.333828169052624e-07
132.75039686213813	2.948485112042161e-05	1.3305785061209649e-07
132.87539686213813	2.99678098063005e-05	1.3515615106795164e-07
133.00039686213813	2.9917266656665934e-05	1.343027112686943e-07
133.12539686213813	2.9621732525795304e-05	1.337682168513221e-07
133.25039686213813	2.8566902448332877e-05	1.292196774182411e-07
133.37539686213813	2.8640401713644896e-05	1.2863940609627356e-07
133.50039686213813	2.8031886734199018e-05	1.2723378404742847e-07
133.62539686213813	2.8624137692223335e-05	1.279509125508918e-07
133.75039686213813	2.9865367872363898e-05	1.3412515217531132e-07
133.87539686213813	2.9715225784116005e-05	1.267695491055192e-07
134.00039686213813	2.915986470916883e-05	1.353931598983792e-07
134.12539686213813	2.8852747282142315e-05	1.3163522269241173e-07
134.25039686213813	2.8126151146634913e-05	1.2896342415896558e-07
134.37539686213813	2.7979182843699848e-05	1.2873826852760686e-07
134.50039686213813	2.8262249417772427e-05	1.3034878279638305e-07
134.62539686213813	2.8972554450435037e-05	1.3013390753046836e-07
134.75039686213813	2.9589334087639183e-05	1.346514658112817e-07
134.87539686213813	2.9315355034305228e-05	1.3304286726827567e-07
135.00039686213813	2.8627198639608006e-05	1.3075052031134208e-07
135.12539686213813	2.8399736680863173e-05	1.2956709874351665e-07
135.25039686213813	2.8202901361e-05	1.2619916324763383e-07
135.37539686213813	2.7374049698289926e-05	1.327414868187946e-07
135.50039686213813	2.620570230507825e-05	1.279850573886871e-07
135.62539686213813	2.501269050026306e-05	1.3118503873543066e-07
135.75039686213813	2.1733343564833182e-05	1.279938671417945e-07
135.87539686213813	1.788045978351708e-05	1.3184516347970854e-07
