# DMC at SINQ, PSI: Sample name = CsCuCl3, title = Unknown! Combined different sample titles, wavelength = 4.515 AA, T = 1.686 K
# Filelist='dmc:2022:12105-12106'
#   4.000   0.125 135.875 1669458834, sample="CsCuCl3"
4.000000000000000000e+00  2.324154311902242189e+05  1.693578011468354362e+03
4.125000000000000000e+00  2.525945564267058799e+05  1.180606219468409563e+03
4.250000000000000000e+00  2.550679152946283284e+05  1.132863416529226242e+03
4.375000000000000000e+00  2.483395150454354298e+05  9.269304025671534646e+02
4.500000000000000000e+00  2.370452163902886095e+05  9.028541648941583162e+02
4.625000000000000000e+00  2.358733156458807644e+05  7.810588789857491747e+02
4.750000000000000000e+00  2.305720637590981205e+05  7.515516043705541733e+02
4.875000000000000000e+00  2.278644900722859020e+05  6.958740615258114985e+02
5.000000000000000000e+00  2.275660318492831721e+05  7.136747738493392035e+02
5.125000000000000000e+00  2.212959348084102967e+05  6.600880526035585945e+02
5.250000000000000000e+00  2.139678804723277863e+05  6.318145092470679174e+02
5.375000000000000000e+00  2.052779639552826120e+05  6.062946190906499169e+02
5.500000000000000000e+00  2.000046208603384148e+05  5.751796752679805422e+02
5.625000000000000000e+00  1.926467379040434607e+05  5.494825649851377420e+02
5.750000000000000000e+00  1.904083696268468921e+05  5.399597571522392627e+02
5.875000000000000000e+00  1.879151410435452126e+05  5.263419713289640640e+02
6.000000000000000000e+00  1.854847359224916436e+05  4.876738207522002426e+02
6.125000000000000000e+00  1.770376571866697050e+05  4.877736803403679460e+02
6.250000000000000000e+00  1.750790191381309996e+05  4.614298057673246376e+02
6.375000000000000000e+00  1.664266018336617562e+05  4.592865922380426582e+02
6.500000000000000000e+00  1.678859241444881773e+05  4.304937109110050528e+02
6.625000000000000000e+00  1.649438338157905091e+05  4.490283669557887265e+02
6.750000000000000000e+00  1.643559351407155918e+05  4.139304591915015976e+02
6.875000000000000000e+00  1.600722229148764454e+05  4.214192930622481299e+02
7.000000000000000000e+00  1.565409250683741702e+05  4.105265148934527701e+02
7.125000000000000000e+00  1.519771598595920368e+05  3.817943186694677138e+02
7.250000000000000000e+00  1.473909210675515060e+05  3.863726756092860342e+02
7.375000000000000000e+00  1.450656983050192648e+05  3.619129253240199091e+02
7.500000000000000000e+00  1.436186571195764700e+05  3.686433879528973421e+02
7.625000000000000000e+00  1.404545789029240841e+05  3.387901770698516088e+02
7.750000000000000000e+00  1.391167359525813663e+05  3.597258530735390991e+02
7.875000000000000000e+00  1.384720075128726894e+05  3.356238912765024338e+02
8.000000000000000000e+00  1.320217034818087413e+05  3.341786193177076143e+02
8.125000000000000000e+00  1.302970367533929675e+05  3.253098110757214272e+02
8.250000000000000000e+00  1.270021631714677060e+05  3.163773585913631337e+02
8.375000000000000000e+00  1.252691356376587501e+05  3.412643910328179118e+02
8.500000000000000000e+00  1.220595206405223144e+05  3.072082395999110531e+02
8.625000000000000000e+00  1.181904526905307575e+05  3.278795324791543635e+02
8.750000000000000000e+00  1.176636029989174858e+05  3.041367916578315089e+02
8.875000000000000000e+00  1.143216112088233785e+05  3.119155165705975605e+02
9.000000000000000000e+00  1.120349715820747515e+05  2.998386183583240836e+02
9.125000000000000000e+00  1.079266081687272526e+05  3.073934052561109525e+02
9.250000000000000000e+00  1.073243349348868069e+05  3.041081669503220155e+02
9.375000000000000000e+00  1.064075097135335673e+05  3.006941819650584193e+02
9.500000000000000000e+00  1.060072458685062884e+05  3.123675188712135764e+02
9.625000000000000000e+00  1.040657225349035871e+05  2.972093506220114705e+02
9.750000000000000000e+00  1.016510738671508152e+05  3.021277913281400629e+02
9.875000000000000000e+00  1.016367521312481986e+05  2.990635928530315368e+02
1.000000000000000000e+01  9.851001277666428359e+04  2.999091934318233825e+02
1.012500000000000000e+01  9.662559888951588073e+04  2.906522741630139421e+02
1.025000000000000000e+01  9.602300684670270130e+04  2.916612211100097056e+02
1.037500000000000000e+01  9.651033616445549706e+04  2.902386020358940186e+02
1.050000000000000000e+01  9.458915134430257604e+04  2.902737064027936640e+02
1.062500000000000000e+01  9.212922973229955824e+04  2.852462185016672720e+02
1.075000000000000000e+01  9.202136911724483070e+04  2.896361312546946465e+02
1.087500000000000000e+01  8.964663392465600919e+04  2.880994817592664390e+02
1.100000000000000000e+01  8.825602800826077873e+04  2.774140000888778559e+02
1.112500000000000000e+01  8.840492436266600271e+04  2.905621091251528014e+02
1.125000000000000000e+01  8.865307624499144731e+04  2.803092046864361464e+02
1.137500000000000000e+01  8.784984088781058381e+04  2.946836625859266974e+02
1.150000000000000000e+01  8.669583454129316669e+04  2.771447913397059892e+02
1.162500000000000000e+01  8.480986161189917766e+04  2.787566891783845335e+02
1.175000000000000000e+01  8.371824037701950874e+04  2.704827689832281976e+02
1.187500000000000000e+01  8.184969830562894640e+04  2.762734084665113983e+02
1.200000000000000000e+01  8.146200017342525825e+04  2.700275811800754013e+02
1.212500000000000000e+01  8.323635852463835909e+04  2.832889837262210904e+02
1.225000000000000000e+01  8.224386376653720799e+04  2.775738230580898289e+02
1.237500000000000000e+01  8.097721331187000033e+04  2.734172389516811563e+02
1.250000000000000000e+01  7.883174114033993101e+04  2.720018240307070982e+02
1.262500000000000000e+01  7.785254116945154965e+04  2.681861192302404220e+02
1.275000000000000000e+01  7.683376872644145624e+04  2.675024683948166739e+02
1.287500000000000000e+01  7.664721466272226826e+04  2.667979950162874729e+02
1.300000000000000000e+01  7.740347555075799755e+04  2.681002623010304546e+02
1.312500000000000000e+01  7.751321462922812498e+04  2.642379942233640122e+02
1.325000000000000000e+01  7.705411280713339511e+04  2.711677296202441880e+02
1.337500000000000000e+01  7.624503723787335912e+04  2.662089043241872446e+02
1.350000000000000000e+01  7.412900874132847821e+04  2.627466060706258304e+02
1.362500000000000000e+01  7.370461046905422700e+04  2.611882108572553989e+02
1.375000000000000000e+01  7.416401580962604203e+04  2.663019445005933221e+02
1.387500000000000000e+01  7.493752486187810428e+04  2.649309137613065559e+02
1.400000000000000000e+01  7.574110869837887003e+04  2.711636482449341088e+02
1.412500000000000000e+01  7.813395395183072833e+04  2.773918545848139274e+02
1.425000000000000000e+01  7.705687120145106746e+04  2.683914774946532589e+02
1.437500000000000000e+01  8.072357738401886309e+04  2.837861839814432301e+02
1.450000000000000000e+01  7.789452560682396870e+04  2.607239506652362593e+02
1.462500000000000000e+01  7.607121845375953126e+04  2.728337576031925096e+02
1.475000000000000000e+01  7.514522984042542521e+04  2.596825208152673099e+02
1.487500000000000000e+01  7.469820123473528656e+04  2.806339548638270003e+02
1.500000000000000000e+01  7.237672159244774957e+04  2.550215719135726147e+02
1.512500000000000000e+01  7.182252534930876573e+04  2.686254371649804398e+02
1.525000000000000000e+01  6.877968592586433806e+04  2.549459959609836517e+02
1.537500000000000000e+01  6.747613781956477033e+04  2.573382777188560340e+02
1.550000000000000000e+01  6.657798644094695919e+04  2.475993466672637737e+02
1.562500000000000000e+01  6.679247752081803628e+04  2.587126724981819166e+02
1.575000000000000000e+01  6.571861567059297522e+04  2.476810749434612831e+02
1.587500000000000000e+01  6.730658862969145412e+04  2.490344103043338464e+02
1.600000000000000000e+01  6.610379133269756858e+04  2.525087879038459278e+02
1.612500000000000000e+01  6.424782329667835438e+04  2.460735625564516624e+02
1.625000000000000000e+01  6.349047469811391056e+04  2.440353455399974507e+02
1.637500000000000000e+01  6.232051366559752205e+04  2.442702362374532754e+02
1.650000000000000000e+01  6.317228934804062737e+04  2.457414715780523977e+02
1.662500000000000000e+01  6.356695076100638107e+04  2.523014589085215107e+02
1.675000000000000000e+01  6.403001807279328932e+04  2.492837246199551942e+02
1.687500000000000000e+01  6.375304822888267518e+04  2.491399098539484669e+02
1.700000000000000000e+01  6.238637489098397782e+04  2.513659482964225731e+02
1.712500000000000000e+01  6.108017778683653160e+04  2.404582329149335180e+02
1.725000000000000000e+01  6.021017807591304881e+04  2.361219766728205229e+02
1.737500000000000000e+01  5.993692450445300346e+04  2.363405912095769565e+02
1.750000000000000000e+01  6.078710265234478720e+04  2.434133886027092615e+02
1.762500000000000000e+01  6.090660388900164253e+04  2.393856772577676963e+02
1.775000000000000000e+01  6.048996172154829401e+04  2.476996628552277002e+02
1.787500000000000000e+01  5.975528055922290514e+04  2.392394081609466809e+02
1.800000000000000000e+01  5.867710475227082497e+04  2.422048983697024482e+02
1.812500000000000000e+01  5.792013366009037418e+04  2.358827099751493392e+02
1.825000000000000000e+01  5.742761111347806582e+04  2.383586193086147773e+02
1.837500000000000000e+01  5.751772933789474337e+04  2.360795914089098062e+02
1.850000000000000000e+01  6.014716888553531317e+04  2.295325679160791026e+02
1.862500000000000000e+01  5.759120236370533530e+04  2.353093094325252537e+02
1.875000000000000000e+01  5.772775909131184744e+04  2.435466927310374672e+02
1.887500000000000000e+01  5.607275864717759396e+04  2.325429645642062724e+02
1.900000000000000000e+01  5.513858715307120292e+04  2.320622121500542221e+02
1.912500000000000000e+01  5.515291518584951700e+04  2.314266776559382777e+02
1.925000000000000000e+01  5.432032573430221237e+04  2.273374234441788531e+02
1.937500000000000000e+01  5.564801003099528316e+04  2.358856093675137515e+02
1.950000000000000000e+01  5.657758414931354491e+04  2.370377291694483972e+02
1.962500000000000000e+01  5.533383916560302168e+04  2.339033433107593680e+02
1.975000000000000000e+01  5.563516987729285756e+04  2.383914441116448018e+02
1.987500000000000000e+01  5.394130938231995242e+04  2.331149540687849822e+02
2.000000000000000000e+01  5.294164577160048793e+04  2.161333638059930138e+02
2.012500000000000000e+01  5.407792318258197338e+04  2.269318959562858709e+02
2.025000000000000000e+01  5.416630674704040575e+04  2.306871546918536922e+02
2.037500000000000000e+01  5.443099326008874050e+04  2.311279202685494738e+02
2.050000000000000000e+01  5.363267803364112478e+04  2.285783238888909352e+02
2.062500000000000000e+01  5.299233700383548421e+04  2.303122310891807842e+02
2.075000000000000000e+01  5.127845365694969951e+04  2.202273149822135281e+02
2.087500000000000000e+01  5.208687227597666060e+04  2.255963584725269016e+02
2.100000000000000000e+01  5.135358588131343276e+04  2.239697651195349692e+02
2.112500000000000000e+01  5.288822742244035180e+04  2.338242227082351690e+02
2.125000000000000000e+01  5.251325600940627191e+04  2.304587704578947012e+02
2.137500000000000000e+01  5.342315868819993921e+04  2.263815105795492002e+02
2.150000000000000000e+01  5.140052904556086287e+04  2.186187969294361437e+02
2.162500000000000000e+01  5.125996863717310043e+04  2.275682469980011717e+02
2.175000000000000000e+01  4.967243827896776202e+04  2.178406197461244176e+02
2.187500000000000000e+01  5.060929429888899176e+04  2.219769942759716059e+02
2.200000000000000000e+01  5.071029841255956126e+04  2.272610992939098935e+02
2.212500000000000000e+01  5.187081468771578511e+04  2.273287183713515276e+02
2.225000000000000000e+01  5.149211548499350465e+04  2.280780114432394328e+02
2.237500000000000000e+01  4.993644237465258630e+04  2.246746760573556685e+02
2.250000000000000000e+01  4.985072041822420579e+04  2.218327943247790586e+02
2.262500000000000000e+01  4.809206877355617326e+04  2.199749056531425140e+02
2.275000000000000000e+01  4.918646632331261208e+04  2.135637262018149443e+02
2.287500000000000000e+01  4.985879801026843052e+04  2.225994475354986832e+02
2.300000000000000000e+01  4.941997076260995527e+04  2.158921446768110286e+02
2.312500000000000000e+01  4.970868065559663955e+04  2.231490818412994486e+02
2.325000000000000000e+01  4.914362825239997619e+04  2.186841103061576632e+02
2.337500000000000000e+01  4.794293461750802089e+04  2.173573171443213994e+02
2.350000000000000000e+01  4.873066813680981431e+04  2.212198374740450788e+02
2.362500000000000000e+01  4.880310050122239772e+04  2.203575362970448452e+02
2.375000000000000000e+01  5.121957289861113532e+04  2.299525385684554237e+02
2.387500000000000000e+01  5.364140583800152672e+04  2.290778549579470678e+02
2.400000000000000000e+01  5.488213289727184019e+04  2.361554175523153560e+02
2.412500000000000000e+01  5.818196163280241308e+04  2.350388275931787234e+02
2.425000000000000000e+01  5.851336794453147741e+04  2.400650706915492378e+02
2.437500000000000000e+01  5.911454028174853738e+04  2.367747037230602416e+02
2.450000000000000000e+01  5.974859823624330602e+04  2.425600365604612421e+02
2.462500000000000000e+01  5.956414453536883957e+04  2.415664909488478713e+02
2.475000000000000000e+01  5.750969590361730661e+04  2.419065783496376127e+02
2.487500000000000000e+01  5.355879964005643706e+04  2.295112502163358954e+02
2.500000000000000000e+01  5.022244476846109319e+04  2.261652853929376761e+02
2.512500000000000000e+01  4.753020051818113279e+04  2.165345665021558830e+02
2.525000000000000000e+01  4.589281781099825457e+04  2.168014079019948213e+02
2.537500000000000000e+01  4.522390549423354969e+04  2.083807569710438088e+02
2.550000000000000000e+01  4.618509566757238645e+04  2.101799249048584102e+02
2.562500000000000000e+01  4.697344289237719204e+04  2.153861497756975609e+02
2.575000000000000000e+01  4.719412453851861937e+04  2.120447219957044354e+02
2.587500000000000000e+01  4.676644140473656444e+04  2.164069650254434123e+02
2.600000000000000000e+01  4.644410436018126347e+04  2.138964420191321949e+02
2.612500000000000000e+01  4.568607609269434761e+04  2.160031765404534099e+02
2.625000000000000000e+01  4.532185701988304208e+04  2.077236633616074073e+02
2.637500000000000000e+01  4.539097369567165879e+04  2.142705228497888470e+02
2.650000000000000000e+01  4.544557141325213161e+04  2.128020540601669097e+02
2.662500000000000000e+01  4.560242118237131945e+04  2.159240402130439804e+02
2.675000000000000000e+01  4.545809760148662463e+04  2.134135946984477528e+02
2.687500000000000000e+01  4.606171821159549290e+04  2.133310149389603225e+02
2.700000000000000000e+01  4.547832448474779812e+04  2.086600782348884877e+02
2.712500000000000000e+01  4.431784990902301070e+04  2.063126079402423159e+02
2.725000000000000000e+01  4.451301454627156636e+04  2.053865991399377720e+02
2.737500000000000000e+01  4.508443605032023333e+04  2.138673571916473293e+02
2.750000000000000000e+01  4.660318674828809890e+04  2.160102862287439791e+02
2.762500000000000000e+01  4.540808802423630550e+04  2.128787394281972638e+02
2.775000000000000000e+01  4.552108172548769653e+04  2.155606525320085893e+02
2.787500000000000000e+01  4.405377411440682772e+04  2.098560287939492639e+02
2.800000000000000000e+01  4.385373978494680341e+04  2.114274331948536201e+02
2.812500000000000000e+01  4.321224046857607755e+04  2.082862316026207736e+02
2.825000000000000000e+01  4.386011144881327346e+04  2.066506587912028010e+02
2.837500000000000000e+01  4.463465170764076902e+04  2.067837817355935783e+02
2.850000000000000000e+01  4.417634265675346251e+04  2.075814769275217770e+02
2.862500000000000000e+01  4.401023461635832791e+04  2.077017644673950940e+02
2.875000000000000000e+01  4.285976685545188229e+04  2.036030257842302547e+02
2.887500000000000000e+01  4.263519377238463494e+04  2.079542886171736882e+02
2.900000000000000000e+01  4.280462578814505832e+04  2.044234283329300865e+02
2.912500000000000000e+01  4.258900286983347178e+04  2.035701796799824592e+02
2.925000000000000000e+01  4.396175777787980769e+04  2.159767989214446118e+02
2.937500000000000000e+01  4.354517403817108425e+04  2.092091954361422097e+02
2.950000000000000000e+01  4.353631118496480485e+04  2.109712630176944970e+02
2.962500000000000000e+01  4.284965806196835911e+04  2.088463768028034053e+02
2.975000000000000000e+01  4.189384042304701143e+04  1.946866758330751566e+02
2.987500000000000000e+01  4.131573833779044799e+04  2.018189160047988082e+02
3.000000000000000000e+01  4.150594947247912933e+04  2.021028836728343947e+02
3.012500000000000000e+01  4.182225050284840108e+04  2.017504980253615372e+02
3.025000000000000000e+01  4.185619752374236850e+04  2.077032427850992065e+02
3.037500000000000000e+01  4.225507048129266332e+04  2.075971389073678779e+02
3.050000000000000000e+01  4.114620501628702914e+04  2.037265400767168444e+02
3.062500000000000000e+01  4.064875488473042060e+04  1.987458751080997672e+02
3.075000000000000000e+01  4.025015625551187986e+04  2.030765232485115632e+02
3.087500000000000000e+01  3.942158484547731496e+04  1.986535013637881946e+02
3.100000000000000000e+01  4.042232886676878115e+04  1.998413526696086535e+02
3.112500000000000000e+01  4.120205435188503907e+04  1.992950587850475017e+02
3.125000000000000000e+01  4.109882346723554656e+04  1.989214299455037747e+02
3.137500000000000000e+01  4.045946263215682848e+04  2.001546180728107061e+02
3.150000000000000000e+01  3.995538082658760686e+04  1.988445208605563437e+02
3.162500000000000000e+01  3.984014640255849372e+04  1.973711922785907404e+02
3.175000000000000000e+01  3.972141111989918863e+04  2.013256922389371368e+02
3.187500000000000000e+01  3.944926770326926635e+04  1.976990936253068014e+02
3.200000000000000000e+01  4.077210207153123338e+04  2.047324802893034530e+02
3.212500000000000000e+01  4.074152795959771902e+04  2.025288086069014071e+02
3.225000000000000000e+01  4.019578215588034072e+04  2.062787383322393566e+02
3.237500000000000000e+01  3.898341684915589576e+04  1.971728285258997460e+02
3.250000000000000000e+01  3.917736927180692874e+04  1.903339621837931759e+02
3.262500000000000000e+01  3.820435310436935833e+04  1.895700050270138490e+02
3.275000000000000000e+01  3.876762640793218452e+04  1.948934134670634251e+02
3.287500000000000000e+01  3.930198865012129681e+04  1.986647246942265497e+02
3.300000000000000000e+01  3.993442171878189401e+04  1.986443002850003836e+02
3.312500000000000000e+01  3.930866740224648674e+04  1.824839407525548438e+02
3.325000000000000000e+01  3.917665348857756180e+04  2.026426820180080597e+02
3.337500000000000000e+01  3.875967359239852522e+04  2.062940048187540185e+02
3.350000000000000000e+01  3.821210031267459999e+04  1.949698461872025916e+02
3.362500000000000000e+01  3.744155005743326910e+04  1.960102535015105047e+02
3.375000000000000000e+01  3.832693043323478196e+04  1.989835082652927554e+02
3.387500000000000000e+01  3.980729669361023844e+04  1.993782115108729158e+02
3.400000000000000000e+01  3.922105570977982279e+04  1.957410497166200116e+02
3.412500000000000000e+01  3.840711069118798332e+04  1.974169474118101277e+02
3.425000000000000000e+01  3.794834283865809994e+04  1.949944399330495344e+02
3.437500000000000000e+01  3.702729593181180098e+04  1.881765661914021166e+02
3.450000000000000000e+01  3.748760828456460149e+04  1.949968641296567569e+02
3.462500000000000000e+01  3.893644418614623282e+04  2.001060629638119508e+02
3.475000000000000000e+01  3.897451381046082679e+04  1.990569328868144510e+02
3.487500000000000000e+01  3.937018103064467869e+04  2.018081611779242053e+02
3.500000000000000000e+01  3.836247121151546889e+04  1.989563126354925657e+02
3.512500000000000000e+01  3.796079733863285946e+04  1.962879859086337717e+02
3.525000000000000000e+01  3.657843815715418168e+04  1.846454134358709211e+02
3.537500000000000000e+01  3.664571719205777481e+04  1.870312470686493498e+02
3.550000000000000000e+01  3.736571639448640781e+04  1.918639326666982470e+02
3.562500000000000000e+01  3.751906954025698360e+04  1.969321823962799840e+02
3.575000000000000000e+01  3.803038514517858857e+04  1.965322409503290828e+02
3.587500000000000000e+01  3.758135227420071897e+04  1.939865187161469464e+02
3.600000000000000000e+01  3.679982620057248278e+04  1.913493912479652010e+02
3.612500000000000000e+01  3.707369405439006368e+04  1.956075472311383123e+02
3.625000000000000000e+01  3.572078926819067419e+04  1.881527543724951386e+02
3.637500000000000000e+01  3.635970383876422420e+04  1.920409869130074298e+02
3.650000000000000000e+01  3.734742332190297020e+04  1.965599411064492870e+02
3.662500000000000000e+01  3.736611909071836999e+04  1.911366700676738049e+02
3.675000000000000000e+01  3.697066901496695937e+04  1.894736232773530276e+02
3.687500000000000000e+01  3.619691400263734249e+04  1.861005408675868580e+02
3.700000000000000000e+01  3.576868033650602592e+04  1.871679945706332262e+02
3.712500000000000000e+01  3.541984340611638618e+04  1.887857180884204809e+02
3.725000000000000000e+01  3.588246200740426139e+04  1.904980033534374968e+02
3.737500000000000000e+01  3.706757015879829123e+04  1.948739710957734417e+02
3.750000000000000000e+01  3.691607397398965986e+04  1.940989756339878340e+02
3.762500000000000000e+01  3.673789227003500855e+04  1.957663563146678882e+02
3.775000000000000000e+01  3.575836533385368966e+04  1.895748794192120101e+02
3.787500000000000000e+01  3.595005387604142743e+04  1.930929741913491284e+02
3.800000000000000000e+01  3.428729221229536779e+04  1.802398834517358353e+02
3.812500000000000000e+01  3.460836352729510691e+04  1.792914744140632877e+02
3.825000000000000000e+01  3.649092789476067264e+04  1.910362693636124050e+02
3.837500000000000000e+01  3.663854919661296299e+04  1.938113569297576646e+02
3.850000000000000000e+01  3.597160321005181322e+04  1.867477083129922448e+02
3.862500000000000000e+01  3.654921298919968831e+04  1.938575239929386953e+02
3.875000000000000000e+01  3.500456656623661547e+04  1.884118366959648654e+02
3.887500000000000000e+01  3.476512682947760914e+04  1.853461443050099149e+02
3.900000000000000000e+01  3.457039271427420317e+04  1.848499097846435575e+02
3.912500000000000000e+01  3.485750997293974797e+04  1.879746201839420792e+02
3.925000000000000000e+01  3.648421334954634949e+04  1.953571001391582911e+02
3.937500000000000000e+01  3.608812222914370068e+04  1.931531527751932344e+02
3.950000000000000000e+01  3.597670032358705794e+04  1.827028934912873694e+02
3.962500000000000000e+01  3.448918850366395054e+04  1.816126221134001071e+02
3.975000000000000000e+01  3.412919470827726764e+04  1.833313867705594191e+02
3.987500000000000000e+01  3.433817003338508948e+04  1.835845831318337389e+02
4.000000000000000000e+01  3.492134393075996923e+04  1.864175897812435494e+02
4.012500000000000000e+01  3.527574626112724218e+04  1.895586878862090146e+02
4.025000000000000000e+01  3.522070583832325792e+04  1.897814995923725405e+02
4.037500000000000000e+01  3.560264290587956202e+04  1.939457089868472224e+02
4.050000000000000000e+01  3.441387399162491783e+04  1.877067656234343929e+02
4.062500000000000000e+01  3.377466567878531350e+04  1.855834903718692317e+02
4.075000000000000000e+01  3.312715520209830720e+04  1.819871211417803636e+02
4.087500000000000000e+01  3.471122830339169741e+04  1.793963745453500565e+02
4.100000000000000000e+01  3.549747588794007606e+04  1.890867241413681086e+02
4.112500000000000000e+01  3.560679265330864291e+04  1.893817592138533428e+02
4.125000000000000000e+01  3.542976801402240380e+04  1.887099972538830173e+02
4.137500000000000000e+01  3.434693361740706314e+04  1.857676890928914588e+02
4.150000000000000000e+01  3.390176225245920068e+04  1.847157799576512787e+02
4.162500000000000000e+01  3.364104403463404014e+04  1.821043873826523054e+02
4.175000000000000000e+01  3.354704812660151947e+04  1.839223207252812813e+02
4.187500000000000000e+01  3.539833678709143715e+04  1.941450044077991777e+02
4.200000000000000000e+01  3.527921436194092530e+04  1.908742137078060921e+02
4.212500000000000000e+01  3.561096449383439904e+04  1.932925082857263988e+02
4.225000000000000000e+01  3.471568680141992809e+04  1.772039002212677588e+02
4.237500000000000000e+01  3.398820504995526426e+04  1.816590277339594479e+02
4.250000000000000000e+01  3.361603331391289976e+04  1.802552490039340398e+02
4.262500000000000000e+01  3.378899847187081468e+04  1.837960794960663122e+02
4.275000000000000000e+01  3.480836803460802184e+04  1.893857993676482749e+02
4.287500000000000000e+01  3.602543879263228882e+04  1.948061106567098477e+02
4.300000000000000000e+01  3.561950382041647390e+04  1.933986962220328962e+02
4.312500000000000000e+01  3.458133298561123956e+04  1.868415256152530901e+02
4.325000000000000000e+01  3.388145798464604013e+04  1.842417842005443163e+02
4.337500000000000000e+01  3.315700712614991062e+04  1.826478921666724773e+02
4.350000000000000000e+01  3.300460385907704040e+04  1.840790224484348698e+02
4.362500000000000000e+01  3.428446143948507233e+04  1.789341808040663295e+02
4.375000000000000000e+01  3.505622330983396387e+04  1.859465332724721520e+02
4.387500000000000000e+01  3.555854601881792769e+04  1.896651363583323757e+02
4.400000000000000000e+01  3.503529892533757811e+04  1.881579805700774557e+02
4.412500000000000000e+01  3.430010305920086103e+04  1.854005454525984646e+02
4.425000000000000000e+01  3.323171510969854717e+04  1.832987529785039271e+02
4.437500000000000000e+01  3.359630748757362744e+04  1.852759457766716196e+02
4.450000000000000000e+01  3.408961414065997815e+04  1.861486881939322586e+02
4.462500000000000000e+01  3.529613043674494838e+04  1.924187849971326330e+02
4.475000000000000000e+01  3.585214920030882058e+04  1.942357327556076996e+02
4.487500000000000000e+01  3.511360600841364067e+04  1.910126182870318985e+02
4.500000000000000000e+01  3.397134327319853037e+04  1.796495401115869583e+02
4.512500000000000000e+01  3.328340276784606976e+04  1.803243607162038984e+02
4.525000000000000000e+01  3.280940656293904613e+04  1.775739838595525555e+02
4.537500000000000000e+01  3.339104365061353019e+04  1.843122024375322781e+02
4.550000000000000000e+01  3.438184051274970989e+04  1.861198918058898073e+02
4.562500000000000000e+01  3.523297761025566433e+04  1.921944915646005825e+02
4.575000000000000000e+01  3.466092037974041159e+04  1.898665660298258899e+02
4.587500000000000000e+01  3.357457648595599312e+04  1.842699775065295853e+02
4.600000000000000000e+01  3.282825686777735973e+04  1.792342399721483162e+02
4.612500000000000000e+01  3.246167535659225177e+04  1.819045175356229436e+02
4.625000000000000000e+01  3.323250356922563515e+04  1.844202221843789005e+02
4.637500000000000000e+01  3.451791166512504424e+04  1.830500043112020307e+02
4.650000000000000000e+01  3.479803999059460330e+04  1.858732818898722030e+02
4.662500000000000000e+01  3.506389087070154346e+04  1.873120268875260592e+02
4.675000000000000000e+01  3.444410990395536646e+04  1.864542440127030147e+02
4.687500000000000000e+01  3.400333986998092587e+04  1.843900217850656134e+02
4.700000000000000000e+01  3.265267947631565767e+04  1.792534593633262716e+02
4.712500000000000000e+01  3.295957376361580828e+04  1.837707159056449200e+02
4.725000000000000000e+01  3.422336957773426548e+04  1.876669351693985845e+02
4.737500000000000000e+01  3.546322051481690869e+04  1.942293760555246251e+02
4.750000000000000000e+01  3.540411537932646752e+04  1.941474993719447468e+02
4.762500000000000000e+01  3.470223722080665902e+04  1.912818393928764067e+02
4.775000000000000000e+01  3.326418550501744903e+04  1.701298131460117986e+02
4.787500000000000000e+01  3.258574322756602851e+04  1.682787857449306728e+02
4.800000000000000000e+01  3.259099381486894345e+04  1.894089087649255703e+02
4.812500000000000000e+01  3.363928168163247756e+04  1.836376052384178763e+02
4.825000000000000000e+01  3.586182863304215425e+04  2.008979335200610024e+02
4.837500000000000000e+01  3.517891439945040474e+04  1.865133741697102039e+02
4.850000000000000000e+01  3.481090159963987389e+04  1.895399070521973215e+02
4.862500000000000000e+01  3.356156244503092603e+04  1.851434667470465740e+02
4.875000000000000000e+01  3.331841489777320385e+04  1.832785924828197892e+02
4.887500000000000000e+01  3.331789256897546147e+04  1.832175166800149384e+02
4.900000000000000000e+01  3.419689899958037859e+04  1.904772439264576178e+02
4.912500000000000000e+01  3.566709706507394003e+04  1.877111642779619842e+02
4.925000000000000000e+01  3.663695740191640652e+04  1.885574366408255287e+02
4.937500000000000000e+01  3.632331660191083211e+04  1.887568738739159926e+02
4.950000000000000000e+01  3.614033665414553980e+04  1.892423611633257394e+02
4.962500000000000000e+01  3.596570622173393349e+04  1.879008048144808072e+02
4.975000000000000000e+01  3.810994406286803132e+04  1.974078603571357746e+02
4.987500000000000000e+01  3.879818813972071075e+04  1.981124525789495294e+02
5.000000000000000000e+01  4.037613876483197964e+04  2.056797177488762998e+02
5.012500000000000000e+01  4.094664813386128662e+04  2.076718203625342483e+02
5.025000000000000000e+01  3.974837992635315459e+04  2.011731841880685749e+02
5.037500000000000000e+01  3.713088485453715111e+04  1.957105376111445594e+02
5.050000000000000000e+01  3.530944305690502370e+04  1.820509779942863133e+02
5.062500000000000000e+01  3.404327574631127936e+04  1.777577397609308321e+02
5.075000000000000000e+01  3.379597625887238246e+04  1.794791494177890172e+02
5.087500000000000000e+01  3.500480202921301679e+04  1.899995243648963026e+02
5.100000000000000000e+01  3.579114102337274380e+04  1.916542418229876716e+02
5.112500000000000000e+01  3.541776400575610023e+04  1.923941058452242885e+02
5.125000000000000000e+01  3.469424867758843175e+04  1.869149181842857104e+02
5.137500000000000000e+01  3.366479483243544382e+04  1.825837244192746880e+02
5.150000000000000000e+01  3.372562066391021654e+04  1.854568390876368085e+02
5.162500000000000000e+01  3.372957976495586627e+04  1.829700777497511979e+02
5.175000000000000000e+01  3.575968173862118419e+04  1.930644328857679000e+02
5.187500000000000000e+01  3.629688194126197050e+04  1.963686934787445466e+02
5.200000000000000000e+01  3.662192992224491172e+04  1.823024693784067267e+02
5.212500000000000000e+01  3.535054861459961103e+04  1.853763650990453300e+02
5.225000000000000000e+01  3.476788162633901084e+04  1.849800323998464080e+02
5.237500000000000000e+01  3.443774314005298947e+04  1.831898511882931189e+02
5.250000000000000000e+01  3.434909986398649926e+04  1.841437318144451183e+02
5.262500000000000000e+01  3.549305408515437739e+04  1.910106838209560749e+02
5.275000000000000000e+01  3.593411147511301533e+04  1.948686188172650304e+02
5.287500000000000000e+01  3.662102431844473176e+04  1.962585460931265118e+02
5.300000000000000000e+01  3.595329156908654841e+04  1.939260962621255260e+02
5.312500000000000000e+01  3.498406031389906275e+04  1.908821030283368714e+02
5.325000000000000000e+01  3.368369671433340409e+04  1.824716686465195608e+02
5.337500000000000000e+01  3.422277424999758659e+04  1.748451010447712406e+02
5.350000000000000000e+01  3.592023380664225260e+04  1.912111993969826642e+02
5.362500000000000000e+01  3.615753604074454051e+04  1.911893257696552268e+02
5.375000000000000000e+01  3.663097739574012667e+04  1.919404955570709603e+02
5.387500000000000000e+01  3.621268240768924443e+04  1.926179262212450283e+02
5.400000000000000000e+01  3.544864555273384758e+04  1.897440942193002513e+02
5.412500000000000000e+01  3.464862964076965727e+04  1.859553653194774938e+02
5.425000000000000000e+01  3.432680893262909376e+04  1.849031420960102139e+02
5.437500000000000000e+01  3.484646196852924186e+04  1.891289405172190357e+02
5.450000000000000000e+01  3.715624853023578908e+04  2.006629143140089866e+02
5.462500000000000000e+01  3.660220534211918857e+04  1.965957746778909723e+02
5.475000000000000000e+01  3.626442561999284953e+04  1.826674038977835437e+02
5.487500000000000000e+01  3.573844384796708619e+04  1.888044534663798402e+02
5.500000000000000000e+01  3.461695440109272022e+04  1.821062395866702843e+02
5.512500000000000000e+01  3.451282629188521241e+04  1.853279753266951388e+02
5.525000000000000000e+01  3.552960705150626018e+04  1.907631627316120557e+02
5.537500000000000000e+01  3.647157971904921578e+04  1.928337129727450758e+02
5.550000000000000000e+01  3.741826313836882764e+04  2.006867750764996003e+02
5.562500000000000000e+01  3.684122135930608783e+04  1.937616639298596510e+02
5.575000000000000000e+01  3.602167120294038614e+04  1.951369681178680366e+02
5.587500000000000000e+01  3.530415105473776202e+04  1.900271008064404441e+02
5.600000000000000000e+01  3.466105774827822461e+04  1.884170578383235579e+02
5.612500000000000000e+01  3.485419594727008371e+04  1.782106571706985676e+02
5.625000000000000000e+01  3.647335035538767988e+04  1.893142802636750162e+02
5.637500000000000000e+01  3.787604612292574893e+04  1.970920483207038956e+02
5.650000000000000000e+01  3.732104493315871514e+04  1.933343662997893091e+02
5.662500000000000000e+01  3.626823147401586903e+04  1.890252733919421075e+02
5.675000000000000000e+01  3.591067021183894394e+04  1.904733636667344854e+02
5.687500000000000000e+01  3.501094130268676963e+04  1.858737676381166182e+02
5.700000000000000000e+01  3.495725903797987849e+04  1.881653815052658842e+02
5.712500000000000000e+01  3.702945520680224581e+04  1.983676536650167179e+02
5.725000000000000000e+01  3.823289412413248647e+04  2.021348903455040613e+02
5.737500000000000000e+01  3.800961622264556354e+04  2.010218723656993518e+02
5.750000000000000000e+01  3.705720001581693214e+04  1.844852272496859200e+02
5.762500000000000000e+01  3.638603660921924165e+04  1.875543980660116006e+02
5.775000000000000000e+01  3.469456762312110368e+04  1.810967671867885542e+02
5.787500000000000000e+01  3.552294917588261160e+04  1.855446031367130217e+02
5.800000000000000000e+01  3.623714395066232100e+04  1.918679372543990382e+02
5.812500000000000000e+01  3.715423129611469631e+04  1.952783042497055419e+02
5.825000000000000000e+01  3.799573129561372480e+04  2.006456113870730746e+02
5.837500000000000000e+01  3.692382817131821503e+04  1.947924272009378512e+02
5.850000000000000000e+01  3.666214140577327635e+04  1.926866144457847554e+02
5.862500000000000000e+01  3.526134899239232618e+04  1.908725624959909055e+02
5.875000000000000000e+01  3.568663082117024896e+04  1.900188396049040591e+02
5.887500000000000000e+01  3.589598515327589121e+04  1.827791643715646046e+02
5.900000000000000000e+01  3.782963895220339327e+04  1.908301414584564668e+02
5.912500000000000000e+01  3.800726613318430464e+04  1.946175410419793650e+02
5.925000000000000000e+01  3.770642317797149735e+04  1.942211437179688858e+02
5.937500000000000000e+01  3.670001053669022804e+04  1.910733372418492308e+02
5.950000000000000000e+01  3.621504271760198026e+04  1.910877860711430003e+02
5.962500000000000000e+01  3.543089932039698033e+04  1.875438459210009228e+02
5.975000000000000000e+01  3.649662219495595491e+04  1.944641279733390604e+02
5.987500000000000000e+01  3.754382493157975841e+04  1.961911198354031853e+02
6.000000000000000000e+01  3.870810000458447030e+04  2.031956255256688166e+02
6.012500000000000000e+01  3.890715662954127765e+04  2.035072387382397210e+02
6.025000000000000000e+01  3.697253029818018695e+04  1.852660443050653782e+02
6.037500000000000000e+01  3.585278958634252194e+04  1.800125566415223375e+02
6.050000000000000000e+01  3.601287947441221331e+04  1.840340364509850986e+02
6.062500000000000000e+01  3.663609027687957132e+04  1.920121023785879686e+02
6.075000000000000000e+01  3.766653533853944828e+04  1.954232652695136494e+02
6.087500000000000000e+01  3.837734862217159389e+04  2.014899082363974685e+02
6.100000000000000000e+01  3.919713382082072349e+04  2.020900428697449911e+02
6.112500000000000000e+01  3.704673375149519416e+04  1.956451131753847790e+02
6.125000000000000000e+01  3.692019310658024915e+04  1.926300076103497645e+02
6.137500000000000000e+01  3.593392656960190652e+04  1.910217427570442510e+02
6.150000000000000000e+01  3.570095109299357136e+04  1.881526939479681175e+02
6.162500000000000000e+01  3.741366818469993450e+04  1.918649650497432617e+02
6.175000000000000000e+01  3.963931885609909659e+04  1.966951482504616138e+02
6.187500000000000000e+01  3.932303880149821634e+04  1.989287613551234699e+02
6.200000000000000000e+01  3.768294699523799500e+04  1.945212937993273101e+02
6.212500000000000000e+01  3.682298927450220071e+04  1.931004193361795274e+02
6.225000000000000000e+01  3.593065697290765820e+04  1.913941781297895943e+02
6.237500000000000000e+01  3.608022520427353447e+04  1.841091423578119759e+02
6.250000000000000000e+01  3.719836771319997933e+04  1.981273006149758089e+02
6.262500000000000000e+01  3.745215474882488343e+04  2.443213162629732267e+02
6.275000000000000000e+01  4.007208778558750782e+04  2.004933097737194032e+02
6.287500000000000000e+01  3.854831321129860589e+04  1.830762561390462508e+02
6.300000000000000000e+01  3.700405282453784457e+04  1.840655987192021428e+02
6.312500000000000000e+01  3.644272653689807339e+04  1.817033087652424967e+02
6.325000000000000000e+01  3.684725960421270429e+04  1.884258893985071950e+02
6.337500000000000000e+01  3.765789253597625793e+04  1.935300910932170382e+02
6.350000000000000000e+01  3.929394766840347438e+04  2.023848634202122696e+02
6.362500000000000000e+01  3.888384702165370982e+04  2.018748751272380559e+02
6.375000000000000000e+01  3.924922239297381748e+04  2.015113741722606164e+02
6.387500000000000000e+01  3.829890167832838051e+04  1.979489496266288313e+02
6.400000000000000000e+01  3.680602860841652728e+04  1.920578860785335280e+02
6.412500000000000000e+01  3.649011602776624932e+04  1.923598770356577461e+02
6.425000000000000000e+01  3.727693775951359567e+04  1.955616183775527759e+02
6.437500000000000000e+01  3.812879835419274605e+04  2.026207986537094428e+02
6.450000000000000000e+01  3.984989278961835953e+04  1.870680833896890931e+02
6.462500000000000000e+01  3.875679557893513993e+04  1.954275957235478813e+02
6.475000000000000000e+01  3.768229063870548998e+04  1.939502401652651145e+02
6.487500000000000000e+01  3.642319098855341872e+04  1.876462257207653295e+02
6.500000000000000000e+01  3.642793946792405040e+04  1.887179372673681712e+02
6.512500000000000000e+01  3.703891398731321533e+04  1.926811677437791559e+02
6.525000000000000000e+01  3.855626253827710025e+04  2.023372411227794032e+02
6.537500000000000000e+01  3.924000861150348646e+04  2.054141046674492941e+02
6.550000000000000000e+01  3.933382605101668742e+04  2.020256371897583278e+02
6.562500000000000000e+01  3.910158248027369700e+04  2.023708188338316347e+02
6.575000000000000000e+01  3.715271002098546160e+04  1.963006081350199281e+02
6.587500000000000000e+01  3.695210358156785514e+04  1.790314255502207743e+02
6.600000000000000000e+01  3.730788244944200414e+04  1.885198470604910312e+02
6.612500000000000000e+01  3.870074063995877077e+04  1.978161188578503697e+02
6.625000000000000000e+01  4.019895746773698193e+04  2.020711571031010578e+02
6.637500000000000000e+01  3.926816363595118310e+04  2.011214770172761064e+02
6.650000000000000000e+01  3.865041467910368374e+04  1.973013076236724714e+02
6.662500000000000000e+01  3.805671578054385463e+04  1.961035172281243604e+02
6.675000000000000000e+01  3.652542152011652797e+04  1.894213220143566900e+02
6.687500000000000000e+01  3.701376320750571904e+04  1.941382161092804211e+02
6.700000000000000000e+01  3.820428698382145376e+04  1.988108515742128759e+02
6.712500000000000000e+01  4.030753740883653518e+04  2.105471059382116721e+02
6.725000000000000000e+01  4.009963930213191634e+04  1.897051075891662322e+02
6.737500000000000000e+01  4.025966127352195326e+04  1.973346851557455466e+02
6.750000000000000000e+01  3.814018505071319669e+04  1.922743998651808397e+02
6.762500000000000000e+01  3.782716513089062209e+04  1.918283289843889463e+02
6.775000000000000000e+01  3.742615035835104936e+04  1.914312225027633758e+02
6.787500000000000000e+01  3.888979929653611180e+04  1.986579512280330846e+02
6.800000000000000000e+01  4.037095474263641518e+04  2.058430232874330272e+02
6.812500000000000000e+01  4.162472576819969254e+04  2.119961279142099215e+02
6.825000000000000000e+01  4.029827797907470813e+04  2.058903920419034250e+02
6.837500000000000000e+01  3.963881027011055994e+04  2.007549542993278067e+02
6.850000000000000000e+01  3.888406382689464226e+04  2.024058957504238094e+02
6.862500000000000000e+01  3.856387052948735800e+04  1.837229026416187025e+02
6.875000000000000000e+01  3.874995774733088911e+04  1.909884804644153746e+02
6.887500000000000000e+01  4.098123731438840332e+04  2.023968415822439226e+02
6.900000000000000000e+01  4.065888758887751464e+04  2.017295389424619145e+02
6.912500000000000000e+01  4.068178097976204299e+04  2.021219481294909883e+02
6.925000000000000000e+01  3.923292918668704078e+04  1.985974712392556398e+02
6.937500000000000000e+01  3.860560378141905676e+04  1.979826620024223871e+02
6.950000000000000000e+01  3.823298179820078076e+04  1.975871288820567315e+02
6.962500000000000000e+01  3.855279394941015198e+04  2.000321624724693379e+02
6.975000000000000000e+01  4.075217529676829145e+04  2.090927689116085730e+02
6.987500000000000000e+01  4.091856483007885981e+04  2.116414578514107916e+02
7.000000000000000000e+01  4.075913980627105047e+04  1.918975112511403722e+02
7.012500000000000000e+01  3.963796013167559431e+04  1.934272576463274618e+02
7.025000000000000000e+01  3.794309431199356186e+04  1.906543730368094032e+02
7.037500000000000000e+01  3.738055624407865980e+04  1.890681956376356538e+02
7.050000000000000000e+01  3.763337841191335610e+04  1.933760211195312593e+02
7.062500000000000000e+01  3.880656756279026740e+04  1.994675664517743598e+02
7.075000000000000000e+01  4.056396981156908441e+04  2.078236948981326009e+02
7.087500000000000000e+01  4.031803789224154752e+04  2.065122077196650991e+02
7.100000000000000000e+01  3.928467758980494546e+04  2.034274394484597224e+02
7.112500000000000000e+01  3.819149107999784610e+04  1.966987949896611667e+02
7.125000000000000000e+01  3.759150033448656177e+04  1.973286713607718355e+02
7.137500000000000000e+01  3.780868641360634501e+04  1.827573188224692444e+02
7.150000000000000000e+01  3.898569320095753210e+04  1.883147091876455193e+02
7.162500000000000000e+01  4.060050586953745369e+04  2.006315318474328535e+02
7.175000000000000000e+01  4.028537281860986695e+04  2.030578774734537433e+02
7.187500000000000000e+01  3.940742127649356553e+04  2.019035837665143163e+02
7.200000000000000000e+01  3.936144820441665797e+04  2.018217374085112965e+02
7.212500000000000000e+01  3.757335359200368839e+04  1.943937680947053934e+02
7.225000000000000000e+01  3.781109332294748310e+04  1.977146919119181803e+02
7.237500000000000000e+01  3.859813094749420998e+04  2.020318510518814605e+02
7.250000000000000000e+01  4.071372057568995660e+04  2.060642128015173569e+02
7.262500000000000000e+01  4.078814377927828900e+04  2.086220432071944231e+02
7.275000000000000000e+01  4.038947215015204711e+04  1.950067547593881159e+02
7.287500000000000000e+01  3.897092854921576509e+04  1.875532441360127223e+02
7.300000000000000000e+01  3.764019621811780962e+04  1.878420759956826203e+02
7.312500000000000000e+01  3.777967899991796730e+04  1.918566072364291131e+02
7.325000000000000000e+01  3.882527510408048693e+04  2.009219502008434688e+02
7.337500000000000000e+01  3.987073180194696033e+04  2.020591586546606209e+02
7.350000000000000000e+01  4.116944335773355851e+04  2.105254946607176407e+02
7.362500000000000000e+01  4.072871404498573247e+04  2.075565746294271037e+02
7.375000000000000000e+01  3.827527742593499715e+04  1.963712861668028324e+02
7.387500000000000000e+01  3.851762727590042778e+04  1.973991478425778041e+02
7.400000000000000000e+01  3.755457128598556301e+04  1.967016871184354159e+02
7.412500000000000000e+01  3.815755454401890893e+04  1.870895492264633049e+02
7.425000000000000000e+01  3.952503031773291150e+04  1.888341895313550083e+02
7.437500000000000000e+01  4.084417178998288728e+04  2.048362923660316710e+02
7.450000000000000000e+01  4.065284496106542792e+04  2.043785711973650621e+02
7.462500000000000000e+01  3.921506261207922216e+04  1.995916573103274061e+02
7.475000000000000000e+01  3.875766122037604509e+04  1.985719374550214411e+02
7.487500000000000000e+01  3.731431177420203312e+04  1.945116535850920059e+02
7.500000000000000000e+01  3.812679852852049225e+04  1.960538246128703577e+02
7.512500000000000000e+01  3.909439432851412857e+04  2.012076584634967560e+02
7.525000000000000000e+01  4.095319712273148616e+04  2.099280814199603356e+02
7.537500000000000000e+01  4.072462978952775302e+04  2.112638237524720068e+02
7.550000000000000000e+01  4.014367244885628315e+04  1.967023722115189912e+02
7.562500000000000000e+01  3.881254598649487161e+04  1.838817082420247289e+02
7.575000000000000000e+01  3.847812354137038346e+04  1.906189465224589412e+02
7.587500000000000000e+01  3.848992315126146423e+04  1.938061612992428593e+02
7.600000000000000000e+01  3.961275534723526653e+04  2.012226129818072593e+02
7.612500000000000000e+01  4.098075767636328965e+04  2.059542596460936181e+02
7.625000000000000000e+01  4.035622367229726660e+04  2.059125009832891635e+02
7.637500000000000000e+01  4.039539455149490823e+04  2.038612035329484229e+02
7.650000000000000000e+01  3.892299892909052869e+04  2.008422441901441005e+02
7.662500000000000000e+01  3.874063617297470046e+04  1.972536460593206584e+02
7.675000000000000000e+01  3.771957771602163120e+04  1.981511953288709549e+02
7.687500000000000000e+01  3.847977125332727883e+04  2.007643275439825459e+02
7.700000000000000000e+01  4.090589919177854608e+04  1.859781779891473832e+02
7.712500000000000000e+01  4.215405227985809324e+04  1.769336697104404266e+02
7.725000000000000000e+01  4.139667171560337738e+04  2.060530684838251148e+02
7.737500000000000000e+01  3.971528943611437717e+04  2.503268861275834638e+02
7.750000000000000000e+01  3.969149418086155492e+04  1.933457918313262383e+02
7.762500000000000000e+01  4.119000294741428661e+04  2.036316301941435256e+02
7.775000000000000000e+01  4.510319060029088723e+04  2.133116837796931407e+02
7.787500000000000000e+01  5.160477917409090878e+04  2.342455532169564947e+02
7.800000000000000000e+01  6.161225266577617003e+04  2.559059722934931358e+02
7.812500000000000000e+01  7.011909119779802859e+04  2.788900869699065765e+02
7.825000000000000000e+01  8.533977544414473232e+04  3.060267623201975766e+02
7.837500000000000000e+01  1.279132801804902119e+05  3.242594922698245909e+02
7.850000000000000000e+01  8.938228129873573198e+04  2.881111661777221684e+02
7.862500000000000000e+01  8.617193370516311552e+04  2.907996303149491268e+02
7.875000000000000000e+01  8.023429875571510638e+04  2.882807931753114872e+02
7.887500000000000000e+01  7.982184142256532505e+04  2.877121337756749995e+02
7.900000000000000000e+01  6.755806016288207320e+04  2.657172679479940030e+02
7.912500000000000000e+01  5.611625174691161374e+04  2.356515598205155015e+02
7.925000000000000000e+01  4.728250774027356965e+04  2.188324994336442728e+02
7.937500000000000000e+01  4.195834731580286461e+04  2.058166969416702443e+02
7.950000000000000000e+01  3.981514285714421567e+04  2.086995199669429439e+02
7.962500000000000000e+01  4.078868483239869238e+04  2.072896586086678212e+02
7.975000000000000000e+01  4.616516940782521124e+04  2.018083196213593453e+02
7.987500000000000000e+01  4.533198810999800480e+04  2.086684408112358540e+02
8.000000000000000000e+01  4.624844043219523883e+04  2.148210861161339835e+02
8.012500000000000000e+01  4.545473708978910872e+04  2.096804518761946667e+02
8.025000000000000000e+01  4.562893498510001518e+04  2.094547394019642468e+02
8.037500000000000000e+01  4.433175704301030055e+04  2.107621696221907541e+02
8.050000000000000000e+01  4.539725696755108947e+04  2.134457513814240031e+02
8.062500000000000000e+01  4.690853483654693264e+04  2.293548540317614197e+02
8.075000000000000000e+01  4.683451369631371199e+04  2.288370743520256667e+02
8.087500000000000000e+01  4.280062009292587754e+04  2.193577176997381457e+02
8.100000000000000000e+01  4.078859757406287827e+04  2.057277022116759042e+02
8.112500000000000000e+01  3.942295075730413373e+04  1.808525433950127024e+02
8.125000000000000000e+01  3.830868597233502078e+04  1.849172889923452772e+02
8.137500000000000000e+01  3.913138513623239851e+04  1.928309659275752210e+02
8.150000000000000000e+01  4.091605603485583561e+04  2.045240437936753324e+02
8.162500000000000000e+01  4.132495460473661660e+04  2.009478081243549070e+02
8.175000000000000000e+01  4.011167516789970978e+04  2.022234633194047149e+02
8.187500000000000000e+01  3.846505172032399423e+04  1.987678811106611363e+02
8.200000000000000000e+01  3.819468691501135618e+04  2.037520916950599599e+02
8.212500000000000000e+01  3.791230644501384086e+04  2.001241624665216250e+02
8.225000000000000000e+01  3.828253239115640463e+04  2.053457715616769690e+02
8.237500000000000000e+01  3.968536790454293077e+04  2.082855555419290852e+02
8.250000000000000000e+01  4.113286329281419603e+04  1.904809628413775897e+02
8.262500000000000000e+01  4.083862686854983622e+04  1.914081668661423805e+02
8.275000000000000000e+01  3.947191348481687601e+04  1.923583442163643440e+02
8.287500000000000000e+01  3.855761207398660918e+04  1.929255688425909625e+02
8.300000000000000000e+01  3.807363614127722394e+04  1.875366552564160827e+02
8.312500000000000000e+01  3.837554399127313809e+04  1.952025173639532056e+02
8.325000000000000000e+01  4.043584216792359803e+04  2.114886954848936398e+02
8.337500000000000000e+01  4.151602452838443423e+04  2.179266328876827856e+02
8.350000000000000000e+01  4.123825590196918347e+04  2.128683074796195456e+02
8.362500000000000000e+01  3.994014082711099763e+04  2.092684946213539376e+02
8.375000000000000000e+01  3.919309831369799940e+04  2.050730258727924991e+02
8.387500000000000000e+01  3.771766674516398780e+04  1.781495254646953867e+02
8.400000000000000000e+01  3.860816555238138972e+04  1.800154134957604128e+02
8.412500000000000000e+01  3.991154331748166442e+04  1.940818010855748810e+02
8.425000000000000000e+01  4.168888408216462994e+04  2.022993461567281770e+02
8.437500000000000000e+01  4.090108523573137063e+04  1.982082848910211510e+02
8.450000000000000000e+01  3.914416325412987499e+04  2.080635746716061760e+02
8.462500000000000000e+01  3.876478733176030073e+04  2.023340038566754231e+02
8.475000000000000000e+01  3.855735210299098253e+04  2.025578419604671865e+02
8.487500000000000000e+01  3.864482817483779218e+04  2.007963858509615420e+02
8.500000000000000000e+01  3.920781549415457994e+04  2.072139558036483322e+02
8.512500000000000000e+01  4.153707337832988560e+04  2.156991646338239832e+02
8.525000000000000000e+01  4.195805268602703291e+04  1.950524885320606643e+02
8.537500000000000000e+01  4.051390179046174308e+04  1.826507751317893451e+02
8.550000000000000000e+01  4.000830110589002288e+04  1.853866004830799454e+02
8.562500000000000000e+01  3.870582875396661257e+04  1.877111010097495409e+02
8.575000000000000000e+01  3.922592225096073525e+04  1.998204103668342384e+02
8.587500000000000000e+01  3.957850081647127809e+04  2.101171076327887590e+02
8.600000000000000000e+01  4.205207916066863982e+04  2.164328823080605275e+02
8.612500000000000000e+01  4.137624253382587631e+04  2.174416742956854307e+02
8.625000000000000000e+01  4.097127964468468417e+04  2.114789295882701481e+02
8.637500000000000000e+01  3.980582370564071607e+04  2.080342724616373289e+02
8.650000000000000000e+01  3.896463705938674684e+04  2.018432570132070509e+02
8.662500000000000000e+01  3.793556172955767397e+04  1.814185160300297355e+02
8.675000000000000000e+01  3.822007186103091226e+04  1.677448721264328810e+02
8.687500000000000000e+01  4.072552280898431491e+04  1.882176035660145601e+02
8.700000000000000000e+01  3.990531576854289597e+04  2.082161325924253390e+02
8.712500000000000000e+01  4.048523431372971390e+04  2.095178995040463406e+02
8.725000000000000000e+01  3.895767443767985242e+04  2.059120870968450276e+02
8.737500000000000000e+01  3.821679168178635155e+04  2.005888989973691139e+02
8.750000000000000000e+01  3.795133931924985518e+04  2.034259195841345047e+02
8.762500000000000000e+01  3.784829680667528010e+04  2.001099389758348934e+02
8.775000000000000000e+01  3.848578858083272644e+04  2.049495264615578947e+02
8.787500000000000000e+01  4.015222696998390893e+04  2.091432029453667667e+02
8.800000000000000000e+01  4.024176679643285752e+04  2.159917789498863385e+02
8.812500000000000000e+01  4.003752884979228111e+04  1.533026305135433631e+02
8.825000000000000000e+01  3.783408999843543279e+04  1.856106983553168277e+02
8.837500000000000000e+01  3.756517206299828104e+04  2.013184008375460223e+02
8.850000000000000000e+01  3.751923424290297407e+04  1.974341080322177504e+02
8.862500000000000000e+01  3.878418735390926304e+04  2.094362997744891288e+02
8.875000000000000000e+01  4.121524399850432383e+04  2.118538728949407073e+02
8.887500000000000000e+01  4.074582917282733979e+04  2.158584998268447634e+02
8.900000000000000000e+01  4.048294230949929624e+04  2.102988708490760530e+02
8.912500000000000000e+01  3.779343127864044800e+04  2.015456193685893709e+02
8.925000000000000000e+01  3.824164622346624674e+04  1.994730710249438062e+02
8.937500000000000000e+01  3.745519321816530282e+04  1.965590013803982288e+02
8.950000000000000000e+01  3.879240817261155462e+04  1.473793146673784520e+02
8.962500000000000000e+01  4.080502209944809147e+04  2.106488311995038032e+02
8.975000000000000000e+01  3.998885722097349935e+04  2.101564493331736685e+02
8.987500000000000000e+01  3.918606531469534821e+04  2.049268522279406852e+02
9.000000000000000000e+01  3.810457466403378930e+04  2.039223727930011023e+02
9.012500000000000000e+01  3.773144858844943519e+04  1.966113184712432655e+02
9.025000000000000000e+01  3.795824018270111992e+04  2.037411544507628207e+02
9.037500000000000000e+01  3.808197042744875944e+04  1.999087994848364360e+02
9.050000000000000000e+01  4.017577292163363018e+04  2.153956986118186876e+02
9.062500000000000000e+01  4.066994741116568184e+04  2.093415340286269384e+02
9.075000000000000000e+01  3.986398925740985578e+04  1.778349206440495607e+02
9.087500000000000000e+01  3.932300351239852171e+04  1.621543027789950031e+02
9.100000000000000000e+01  3.810520376304349338e+04  1.998298705627035758e+02
9.112500000000000000e+01  3.782882441472751816e+04  2.006304903122741337e+02
9.125000000000000000e+01  3.907834244974463945e+04  2.059895605236370670e+02
9.137500000000000000e+01  4.014176474650416640e+04  2.144320144711310832e+02
9.150000000000000000e+01  4.130438337570602016e+04  2.145052831052190356e+02
9.162500000000000000e+01  4.064490750742390810e+04  2.143127429679834961e+02
9.175000000000000000e+01  3.926717622021048010e+04  1.922783567826960223e+02
9.187500000000000000e+01  3.878532078149806330e+04  1.871460856654265115e+02
9.200000000000000000e+01  3.722947816505109222e+04  2.909707574687066085e+02
9.212500000000000000e+01  3.864882938293876941e+04  1.550512181557483586e+02
9.225000000000000000e+01  4.027668081629917288e+04  1.731149839397941719e+02
9.237500000000000000e+01  4.132745182842011855e+04  2.136449047931797907e+02
9.250000000000000000e+01  4.059988915540213929e+04  2.137576557612874524e+02
9.262500000000000000e+01  4.030341930882411543e+04  2.075456458714662915e+02
9.275000000000000000e+01  3.874181749085224874e+04  2.042099978698633436e+02
9.287500000000000000e+01  3.858396181493863696e+04  2.006427010685091830e+02
9.300000000000000000e+01  3.847567704034026974e+04  2.047302757110084883e+02
9.312500000000000000e+01  3.962479109196938225e+04  2.053566649200605809e+02
9.325000000000000000e+01  4.045699639608588768e+04  2.132004447779147824e+02
9.337500000000000000e+01  4.093571685769586475e+04  1.915541868966211041e+02
9.350000000000000000e+01  4.057804468871201243e+04  1.820705333207008039e+02
9.362500000000000000e+01  3.984654900414899021e+04  1.744036070501644815e+02
9.375000000000000000e+01  3.912435355833987705e+04  2.003533867794589298e+02
9.387500000000000000e+01  3.902148047125786252e+04  2.038293656919522618e+02
9.400000000000000000e+01  4.207079368638366577e+04  2.102935177341088320e+02
9.412500000000000000e+01  4.498589727851704083e+04  2.292574528542279779e+02
9.425000000000000000e+01  4.616894417874648207e+04  2.242294352688788024e+02
9.437500000000000000e+01  4.651449550154648023e+04  2.317310832053311742e+02
9.450000000000000000e+01  4.499181172025939304e+04  2.161644364645851795e+02
9.462500000000000000e+01  4.401064292116469005e+04  2.040703335755856074e+02
9.475000000000000000e+01  4.398465300485718763e+04  1.966227839367983563e+02
9.487500000000000000e+01  4.435620456301216473e+04  1.946252683385955891e+02
9.500000000000000000e+01  4.899626027396834979e+04  2.006998694881947927e+02
9.512500000000000000e+01  4.662014929971736274e+04  2.248327812648853126e+02
9.525000000000000000e+01  4.457636152132748248e+04  2.238944210691048511e+02
9.537500000000000000e+01  4.294046778482618538e+04  2.102224084312415187e+02
9.550000000000000000e+01  4.178391136094337708e+04  2.143328422277938614e+02
9.562500000000000000e+01  4.145691580312148290e+04  2.056181146686793966e+02
9.575000000000000000e+01  4.066929099404716544e+04  2.111501298218974512e+02
9.587500000000000000e+01  4.222372981065719796e+04  2.033609595480963037e+02
9.600000000000000000e+01  4.461851060506945942e+04  2.135443694278413318e+02
9.612500000000000000e+01  4.526101086339039466e+04  2.064239508857719727e+02
9.625000000000000000e+01  4.606986717603585566e+04  2.006796855312433081e+02
9.637500000000000000e+01  6.420788559113632073e+04  2.219468522098698884e+02
9.650000000000000000e+01  7.708939612258868874e+04  2.813537824668218263e+02
9.662500000000000000e+01  9.735797124538104981e+04  3.289158191007228993e+02
9.675000000000000000e+01  1.242088144079324702e+05  3.672342683563778110e+02
9.687500000000000000e+01  1.526993161178894225e+05  4.150035553774110326e+02
9.700000000000000000e+01  1.781504875631608302e+05  4.398361854857013782e+02
9.712500000000000000e+01  1.851702534954218427e+05  4.404186605303158331e+02
9.725000000000000000e+01  1.914761010001967661e+05  4.192811264472753123e+02
9.737500000000000000e+01  1.839877359783874999e+05  4.187188182216200971e+02
9.750000000000000000e+01  1.843379602127073449e+05  4.144917643930130566e+02
9.762500000000000000e+01  1.692782167455175077e+05  3.954030207947884037e+02
9.775000000000000000e+01  2.435342647952363477e+05  4.445262497821891543e+02
9.787500000000000000e+01  1.611282382318037562e+05  4.143620431250508318e+02
9.800000000000000000e+01  1.336707491193078167e+05  3.870565431994904202e+02
9.812500000000000000e+01  1.033824270251456473e+05  3.263695819503089410e+02
9.825000000000000000e+01  7.870447486088369624e+04  2.923938556550857584e+02
9.837500000000000000e+01  6.292395945315694553e+04  2.492922811631230786e+02
9.850000000000000000e+01  5.531483816425339319e+04  2.364594619691002890e+02
9.862500000000000000e+01  5.101667105940569309e+04  2.253429615424505243e+02
9.875000000000000000e+01  4.740350072527580778e+04  2.199870132125853672e+02
9.887500000000000000e+01  4.372733758888557350e+04  2.055079382160126613e+02
9.900000000000000000e+01  4.155874883867290191e+04  1.941107707981367412e+02
9.912500000000000000e+01  4.106872836391920282e+04  1.803481737454580411e+02
9.925000000000000000e+01  3.954844691154926841e+04  2.024720532027636182e+02
9.937500000000000000e+01  4.036163830450057867e+04  2.119517082783802948e+02
9.950000000000000000e+01  4.242482488728749740e+04  2.151217571366670711e+02
9.962500000000000000e+01  4.211882796004135162e+04  2.152003014807729642e+02
9.975000000000000000e+01  4.236667258663316898e+04  2.070859732384129472e+02
9.987500000000000000e+01  4.150713245434773853e+04  2.044760758069516839e+02
1.000000000000000000e+02  4.004171436839656963e+04  1.960663124724660520e+02
1.001250000000000000e+02  4.028866585966489220e+04  1.959504271975530401e+02
1.002500000000000000e+02  4.148032049225134688e+04  1.991256749692176413e+02
1.003750000000000000e+02  4.373403294132018345e+04  2.050891684723075059e+02
1.005000000000000000e+02  4.630434713813238341e+04  1.998626738039662030e+02
1.006250000000000000e+02  4.571257379162967845e+04  2.135775146966628313e+02
1.007500000000000000e+02  4.354073553816117783e+04  2.177281734882894284e+02
1.008750000000000000e+02  4.134387487497944676e+04  2.043573702091672999e+02
1.010000000000000000e+02  4.068800452985211450e+04  2.014331700406595189e+02
1.011250000000000000e+02  4.099915801696548442e+04  2.014293320537802856e+02
1.012500000000000000e+02  4.162269477021565399e+04  2.049161126237276278e+02
1.013750000000000000e+02  4.337561620704804227e+04  2.134090357878698683e+02
1.015000000000000000e+02  4.211283691725453536e+04  2.063388135929380098e+02
1.016250000000000000e+02  4.100222488315428200e+04  1.984655090946310736e+02
1.017500000000000000e+02  3.968219589644445659e+04  1.926524492567612583e+02
1.018750000000000000e+02  3.947769109938551264e+04  1.839797134100130904e+02
1.020000000000000000e+02  3.930353360357230849e+04  1.923595534392481738e+02
1.021250000000000000e+02  4.002738937907446234e+04  2.088815185879412866e+02
1.022500000000000000e+02  4.182113120423902001e+04  2.088760186318751835e+02
1.023750000000000000e+02  4.134337692377111671e+04  2.057750469981171761e+02
1.025000000000000000e+02  4.248486586448885646e+04  2.093129915498913647e+02
1.026250000000000000e+02  4.028714579512011551e+04  2.021292111527675956e+02
1.027500000000000000e+02  4.045192812216711172e+04  1.971740531653397852e+02
1.028750000000000000e+02  3.962861344946503232e+04  1.970207824496829971e+02
1.030000000000000000e+02  4.058622470593606704e+04  2.004337439839003707e+02
1.031250000000000000e+02  4.286947454740104149e+04  2.059462155767094202e+02
1.032500000000000000e+02  4.288790879909185605e+04  1.980738639391336733e+02
1.033750000000000000e+02  4.325657501978737128e+04  1.993517563255717278e+02
1.035000000000000000e+02  4.122539093122139457e+04  2.058081987926160821e+02
1.036250000000000000e+02  4.188753270469250128e+04  2.042055572070131575e+02
1.037500000000000000e+02  4.172803024781870772e+04  2.038426056047929649e+02
1.038750000000000000e+02  4.321034733734658221e+04  2.065259744334487948e+02
1.040000000000000000e+02  4.474577333962888224e+04  2.160270761686160768e+02
1.041250000000000000e+02  4.580278908429500007e+04  2.170870202730277185e+02
1.042500000000000000e+02  4.536808946599153569e+04  2.160017893916237313e+02
1.043750000000000000e+02  4.397315090427774703e+04  2.058238690905990040e+02
1.045000000000000000e+02  4.330229158370456571e+04  2.021662435582233854e+02
1.046250000000000000e+02  4.350242697383385530e+04  1.994642970944098863e+02
1.047500000000000000e+02  4.434013963245719060e+04  1.955341304663598692e+02
1.048750000000000000e+02  4.464023407542698260e+04  2.170379838619159898e+02
1.050000000000000000e+02  4.485606281607918208e+04  2.149794210897858022e+02
1.051250000000000000e+02  4.386120898890585522e+04  2.155426544785204044e+02
1.052500000000000000e+02  4.292686426191105420e+04  2.090390218872547621e+02
1.053750000000000000e+02  4.089777214372285380e+04  2.022907761446945187e+02
1.055000000000000000e+02  4.063470370911810460e+04  1.983219151727176950e+02
1.056250000000000000e+02  3.988390458805594972e+04  1.977336160029630321e+02
1.057500000000000000e+02  4.185587777149213798e+04  2.057800157218729566e+02
1.058750000000000000e+02  4.311552298998448532e+04  2.066684807057270064e+02
1.060000000000000000e+02  4.301371862412463815e+04  1.996023086822585810e+02
1.061250000000000000e+02  4.582323871998621325e+04  1.954531459510074001e+02
1.062500000000000000e+02  4.573653833412856329e+04  2.137805010167141404e+02
1.063750000000000000e+02  4.901910710908964393e+04  2.075981534261202057e+02
1.065000000000000000e+02  5.712788123065747641e+04  2.357458194253554780e+02
1.066250000000000000e+02  5.280487118810292304e+04  3.009276479377884357e+02
1.067500000000000000e+02  7.104933972475385235e+04  2.511800815539625660e+02
1.068750000000000000e+02  7.971640029548216262e+04  2.718970704012450028e+02
1.070000000000000000e+02  8.014177762993109354e+04  2.873148072926389318e+02
1.071250000000000000e+02  8.349200449431710877e+04  2.853931356350118449e+02
1.072500000000000000e+02  8.576045221959227638e+04  2.793574174179167358e+02
1.073750000000000000e+02  9.616968583479616791e+04  2.926214879108226228e+02
1.075000000000000000e+02  1.195436630951016705e+05  3.183713246369040917e+02
1.076250000000000000e+02  9.206815980735991616e+04  3.139260930948506712e+02
1.077500000000000000e+02  8.697135801231078221e+04  3.001064904863338256e+02
1.078750000000000000e+02  8.097118486663379008e+04  2.898731832402420991e+02
1.080000000000000000e+02  7.621639576897362713e+04  2.756077997500454444e+02
1.081250000000000000e+02  6.875567387526085076e+04  2.602179685460390033e+02
1.082500000000000000e+02  6.276751768204466498e+04  2.487759874050469762e+02
1.083750000000000000e+02  5.397532791924847697e+04  2.289331434161421157e+02
1.085000000000000000e+02  5.244264765201687987e+04  2.288632215407012040e+02
1.086250000000000000e+02  4.805384753408689721e+04  2.144385115552993284e+02
1.087500000000000000e+02  4.676313823448313633e+04  2.084278124351241104e+02
1.088750000000000000e+02  4.391455718276405241e+04  1.911027216169692053e+02
1.090000000000000000e+02  3.998260475284887798e+04  2.004902642534312633e+02
1.091250000000000000e+02  3.945357371795371728e+04  1.965810348308403093e+02
1.092500000000000000e+02  3.930608372275553847e+04  1.987438319633458548e+02
1.093750000000000000e+02  4.170021203080315172e+04  2.076617263851140933e+02
1.095000000000000000e+02  4.245505799380073586e+04  2.104625948129925348e+02
1.096250000000000000e+02  4.171438312035272247e+04  2.073418799498396368e+02
1.097500000000000000e+02  4.014244935794368939e+04  1.991059677453922916e+02
1.098750000000000000e+02  3.979339753409779223e+04  1.945707132103832180e+02
1.100000000000000000e+02  3.956457640740877832e+04  1.926384329276615688e+02
1.101250000000000000e+02  3.946551588897804322e+04  1.899841279243144641e+02
1.102500000000000000e+02  4.070103026678444439e+04  1.851079745626158228e+02
1.103750000000000000e+02  4.166859493988430768e+04  2.099473287337321494e+02
1.105000000000000000e+02  4.172821449429954373e+04  2.070732510164022813e+02
1.106250000000000000e+02  4.043098499424299371e+04  2.040278254962600215e+02
1.107500000000000000e+02  3.981798586179627455e+04  1.990501232645349603e+02
1.108750000000000000e+02  3.857401031986712042e+04  1.936681563838950524e+02
1.110000000000000000e+02  3.782175913811801729e+04  1.883592048899201359e+02
1.111250000000000000e+02  3.948277076233315893e+04  1.952345101124456903e+02
1.112500000000000000e+02  4.062367937020452518e+04  2.001045079001034139e+02
1.113750000000000000e+02  3.978992280344649771e+04  1.943354810680540368e+02
1.115000000000000000e+02  3.964516333616904740e+04  1.884705026126866017e+02
1.116250000000000000e+02  3.870225265347531240e+04  1.757143287625001449e+02
1.117500000000000000e+02  3.803718172919620702e+04  1.939259597419049328e+02
1.118750000000000000e+02  3.804867779800311837e+04  1.933348805417372773e+02
1.120000000000000000e+02  3.900053140601061750e+04  1.982918375193029021e+02
1.121250000000000000e+02  4.092330650052728743e+04  2.043892757746537541e+02
1.122500000000000000e+02  4.074744859243633982e+04  2.029221185845294713e+02
1.123750000000000000e+02  4.043948651388181315e+04  1.991102675772932287e+02
1.125000000000000000e+02  3.968320052458685677e+04  1.974606297567094089e+02
1.126250000000000000e+02  3.898528794381031184e+04  1.923330042446661139e+02
1.127500000000000000e+02  3.905105667845931021e+04  1.909067932693179728e+02
1.128750000000000000e+02  3.900952998350679991e+04  1.909549474405708054e+02
1.130000000000000000e+02  4.111420693534346356e+04  1.924547415739095584e+02
1.131250000000000000e+02  4.213439392244310875e+04  2.052335066141857567e+02
1.132500000000000000e+02  4.157164064186259930e+04  2.083222369998252930e+02
1.133750000000000000e+02  4.063214040942773136e+04  2.056039147658244417e+02
1.135000000000000000e+02  3.943995246613086056e+04  1.963402012412277315e+02
1.136250000000000000e+02  3.962031588037312758e+04  1.968797937306664778e+02
1.137500000000000000e+02  4.082177535368642566e+04  2.009974004316624985e+02
1.138750000000000000e+02  4.204988922767555050e+04  2.085027333581263917e+02
1.140000000000000000e+02  4.276042470802735625e+04  2.068861754339447998e+02
1.141250000000000000e+02  4.258122514854121982e+04  2.041425770418869092e+02
1.142500000000000000e+02  4.225798342359537492e+04  2.006741054207909656e+02
1.143750000000000000e+02  4.231984866004685318e+04  1.939849346321854284e+02
1.145000000000000000e+02  4.211507214242376358e+04  1.989394913628384813e+02
1.146250000000000000e+02  4.175834402288843557e+04  2.042540667814898825e+02
1.147500000000000000e+02  4.208233747722115368e+04  2.084996514632632056e+02
1.148750000000000000e+02  4.448099355292550899e+04  2.128593974864002973e+02
1.150000000000000000e+02  4.364964738460986700e+04  2.110970700450104403e+02
1.151250000000000000e+02  4.375211870904730313e+04  2.086250908640136288e+02
1.152500000000000000e+02  4.296170900728578999e+04  2.066302754012788796e+02
1.153750000000000000e+02  4.225956157113611698e+04  2.021387091885455334e+02
1.155000000000000000e+02  4.142890969145537383e+04  1.986958074078665106e+02
1.156250000000000000e+02  4.336268346228128212e+04  2.052132595735842813e+02
1.157500000000000000e+02  4.495867078550414590e+04  2.065259794847679018e+02
1.158750000000000000e+02  4.600660763286423025e+04  2.101371827455649282e+02
1.160000000000000000e+02  4.364416060139514593e+04  2.109447634850607471e+02
1.161250000000000000e+02  4.319601866586424148e+04  2.094181661898451239e+02
1.162500000000000000e+02  4.213736478247617924e+04  2.007998760391933786e+02
1.163750000000000000e+02  4.208345612463012367e+04  2.042453093782490043e+02
1.165000000000000000e+02  4.351328918213794532e+04  2.079169115795713481e+02
1.166250000000000000e+02  4.459475111734852544e+04  2.130333308978730429e+02
1.167500000000000000e+02  4.508390454486269300e+04  2.131966301320289858e+02
1.168750000000000000e+02  4.465578747112762358e+04  2.106287910854786389e+02
1.170000000000000000e+02  4.390743621822002024e+04  2.045195012961781060e+02
1.171250000000000000e+02  4.274746204266128916e+04  1.971059621321543318e+02
1.172500000000000000e+02  4.265163029690337862e+04  1.963325204750525188e+02
1.173750000000000000e+02  4.144634613605534832e+04  2.011792630229436156e+02
1.175000000000000000e+02  4.298814152592862956e+04  2.114949721568967789e+02
1.176250000000000000e+02  4.464741500067781453e+04  2.168142314236554853e+02
1.177500000000000000e+02  4.286345131200324249e+04  2.071084843090484071e+02
1.178750000000000000e+02  4.216744919193854730e+04  2.024965694195332730e+02
1.180000000000000000e+02  4.131607333991000633e+04  2.026905614176882011e+02
1.181250000000000000e+02  4.037991414768078539e+04  1.967949853826825688e+02
1.182500000000000000e+02  4.133772499365475960e+04  2.018083736096428424e+02
1.183750000000000000e+02  4.275321709022104187e+04  2.050779382561262878e+02
1.185000000000000000e+02  4.357983119341792917e+04  2.040902093556840953e+02
1.186250000000000000e+02  4.398500375688591157e+04  2.004689334121337083e+02
1.187500000000000000e+02  4.249417976406822709e+04  2.046421597546249416e+02
1.188750000000000000e+02  4.119911597950616851e+04  2.056334697359803272e+02
1.190000000000000000e+02  4.045591417412844748e+04  1.981205908341423196e+02
1.191250000000000000e+02  4.120947803663075319e+04  2.011583094496123749e+02
1.192500000000000000e+02  4.230617925150695373e+04  2.078733226578881101e+02
1.193750000000000000e+02  4.433911988579182071e+04  2.143512767797848824e+02
1.195000000000000000e+02  4.424730549734197848e+04  2.118308678138212144e+02
1.196250000000000000e+02  4.275177323901853379e+04  2.053878852828768231e+02
1.197500000000000000e+02  4.250286478516418720e+04  2.010856421217044669e+02
1.198750000000000000e+02  4.225002657867808011e+04  1.972255726809771375e+02
1.200000000000000000e+02  4.300189174142083357e+04  1.931893860643484118e+02
1.201250000000000000e+02  4.338439682644483401e+04  2.094398736228000644e+02
1.202500000000000000e+02  4.378221233508599835e+04  2.114638609639309834e+02
1.203750000000000000e+02  4.502667318708909443e+04  2.154978371707005067e+02
1.205000000000000000e+02  4.527337484404917632e+04  2.164481314189104921e+02
1.206250000000000000e+02  4.425089820705674356e+04  2.094612937204782952e+02
1.207500000000000000e+02  4.297800019243180577e+04  2.065987384241348650e+02
1.208750000000000000e+02  4.322328414016785973e+04  2.025960374213685782e+02
1.210000000000000000e+02  4.372323914895085909e+04  1.938455559693767043e+02
1.211250000000000000e+02  4.597614628736433951e+04  2.056938708944954612e+02
1.212500000000000000e+02  4.727568128160964261e+04  2.245805906366528575e+02
1.213750000000000000e+02  4.517797616103651671e+04  1.954200716809977507e+02
1.215000000000000000e+02  4.366545183073367662e+04  2.345470334556740113e+02
1.216250000000000000e+02  4.262964097816230787e+04  2.225188514592138347e+02
1.217500000000000000e+02  4.343622915863133676e+04  1.975047479113839870e+02
1.218750000000000000e+02  4.313307142859276064e+04  2.036709836586534550e+02
1.220000000000000000e+02  4.514440487264321564e+04  2.155115858804441018e+02
1.221250000000000000e+02  4.518450624644269556e+04  2.144796569530430759e+02
1.222500000000000000e+02  4.571204327835551521e+04  2.140873838515953764e+02
1.223750000000000000e+02  4.420593707980086037e+04  2.083610062365729334e+02
1.225000000000000000e+02  4.350704307063298620e+04  2.033972298610175073e+02
1.226250000000000000e+02  4.336669664110980375e+04  2.005676516578201642e+02
1.227500000000000000e+02  4.424577163552808634e+04  1.963823312000113503e+02
1.228750000000000000e+02  4.548173191647385102e+04  2.130741861092521958e+02
1.230000000000000000e+02  4.657131203708081739e+04  2.216977834767278921e+02
1.231250000000000000e+02  4.713471323594416026e+04  2.211386841348451071e+02
1.232500000000000000e+02  4.637581291309367953e+04  2.200650874707110631e+02
1.233750000000000000e+02  4.509144463307248225e+04  2.069787248973995588e+02
1.235000000000000000e+02  4.630427923852983804e+04  2.142522999616909658e+02
1.236250000000000000e+02  4.891875169729311165e+04  2.175370242753141099e+02
1.237500000000000000e+02  5.152032781734425953e+04  2.238956394898329449e+02
1.238750000000000000e+02  5.619379633791840752e+04  2.398227260457368004e+02
1.240000000000000000e+02  6.167961306265250460e+04  2.428858343452627935e+02
1.241250000000000000e+02  7.768671688890708901e+04  2.585080300424622806e+02
1.242500000000000000e+02  8.190400518835650291e+04  2.832675368393406643e+02
1.243750000000000000e+02  8.326031587380114070e+04  2.893251408228199466e+02
1.245000000000000000e+02  9.241512152589015022e+04  3.036490281409417662e+02
1.246250000000000000e+02  1.001239275210323394e+05  3.185463200605847192e+02
1.247500000000000000e+02  1.199106143088450335e+05  3.488782133059315811e+02
1.248750000000000000e+02  1.243816383806865633e+05  3.534739115682468764e+02
1.250000000000000000e+02  1.320555204142474104e+05  3.600422329753468489e+02
1.251250000000000000e+02  1.243634654396271071e+05  3.470091897485926324e+02
1.252500000000000000e+02  1.386937609170656360e+05  3.677702439139649186e+02
1.253750000000000000e+02  1.458405698324971600e+05  3.676471291850915577e+02
1.255000000000000000e+02  1.705103393903599354e+05  3.946639105137115848e+02
1.256250000000000000e+02  1.595930787643248623e+05  3.917860596039475354e+02
1.257500000000000000e+02  1.300067457422657899e+05  3.708081850155843995e+02
1.258750000000000000e+02  1.281739463307015394e+05  3.599681746053458369e+02
1.260000000000000000e+02  1.215494979299822153e+05  3.453431277573164380e+02
1.261250000000000000e+02  1.221988315352407226e+05  3.451724047398016637e+02
1.262500000000000000e+02  1.097040720646964182e+05  3.279251442279345383e+02
1.263750000000000000e+02  1.018872542055987724e+05  3.154676306641289898e+02
1.265000000000000000e+02  9.084262563550005143e+04  3.015017276198347531e+02
1.266250000000000000e+02  8.948324169041770801e+04  2.995214051943576692e+02
1.267500000000000000e+02  8.535095611973432824e+04  2.860584878426955129e+02
1.268750000000000000e+02  7.813057820978220843e+04  2.720899747430016191e+02
1.270000000000000000e+02  6.536952589605827961e+04  2.409863768621134454e+02
1.271250000000000000e+02  5.456138128863582097e+04  2.332300662099751207e+02
1.272500000000000000e+02  5.320908993067310803e+04  2.292856357477483868e+02
1.273750000000000000e+02  5.226642076337808248e+04  2.291990097240975786e+02
1.275000000000000000e+02  5.142356403964471974e+04  2.298284233499473714e+02
1.276250000000000000e+02  4.991695607092991850e+04  2.264116061258026207e+02
1.277500000000000000e+02  4.755240738944592158e+04  2.157664846490196169e+02
1.278750000000000000e+02  4.609939693411736516e+04  2.130786029403882083e+02
1.280000000000000000e+02  4.467803218055274192e+04  2.055950487304569094e+02
1.281250000000000000e+02  4.513385325363975426e+04  2.057712681339731375e+02
1.282500000000000000e+02  4.591554178674893046e+04  2.080503644918926227e+02
1.283750000000000000e+02  4.692983831575994554e+04  2.078822000826511669e+02
1.285000000000000000e+02  4.665930514241491619e+04  2.210001614733328665e+02
1.286250000000000000e+02  4.599951289475383237e+04  2.148290634222858557e+02
1.287500000000000000e+02  4.555232286281281995e+04  2.135103547999290470e+02
1.288750000000000000e+02  4.517342538641591818e+04  2.107803264589036587e+02
1.290000000000000000e+02  4.569097793570034264e+04  2.157540283871106226e+02
1.291250000000000000e+02  4.550194550939696637e+04  2.126468096923988185e+02
1.292500000000000000e+02  4.746425169584911055e+04  2.210774464309025973e+02
1.293750000000000000e+02  4.732646010514163936e+04  2.167384175785113314e+02
1.295000000000000000e+02  4.700532403782042820e+04  2.132446137770299401e+02
1.296250000000000000e+02  4.650026842395411222e+04  2.059753193760003853e+02
1.297500000000000000e+02  4.624563693880670326e+04  2.023264003572536183e+02
1.298750000000000000e+02  4.613607796610426885e+04  2.157965826733975234e+02
1.300000000000000000e+02  4.705811649576397031e+04  2.183935840817923690e+02
1.301250000000000000e+02  4.853515610132545407e+04  2.228423978387238549e+02
1.302500000000000000e+02  4.965194700246465072e+04  2.267188556265055865e+02
1.303750000000000000e+02  4.986529748753130843e+04  2.271396312820140508e+02
1.305000000000000000e+02  4.889234175964435417e+04  2.186378953903809474e+02
1.306250000000000000e+02  4.791266868215671275e+04  2.176769454134389434e+02
1.307500000000000000e+02  4.744208197328638198e+04  2.128325171694308153e+02
1.308750000000000000e+02  4.846467726992276584e+04  2.157803818531163245e+02
1.310000000000000000e+02  5.038490845874063962e+04  2.184647621344911101e+02
1.311250000000000000e+02  5.106168636981123564e+04  2.173408447802353010e+02
1.312500000000000000e+02  5.106095081490565644e+04  2.304324986531968591e+02
1.313750000000000000e+02  5.005771257302918821e+04  2.243184781300632551e+02
1.315000000000000000e+02  4.873820408078693436e+04  2.184493719588445515e+02
1.316250000000000000e+02  4.829565297734053456e+04  2.180351768498670992e+02
1.317500000000000000e+02  4.880840026732951810e+04  2.210857350108395849e+02
1.318750000000000000e+02  4.985114496181733557e+04  2.210786179176985513e+02
1.320000000000000000e+02  5.128809581332092057e+04  2.302137779947035199e+02
1.321250000000000000e+02  5.104090556366505916e+04  2.255028081409526806e+02
1.322500000000000000e+02  4.980706876871886197e+04  2.163848293792504194e+02
1.323750000000000000e+02  4.868593672423096723e+04  2.138188072336261882e+02
1.325000000000000000e+02  4.788050203792483080e+04  2.039185910152820895e+02
1.326250000000000000e+02  4.865533332602489099e+04  2.226771220071033497e+02
1.327500000000000000e+02  4.922374517676246614e+04  2.221346041581745965e+02
1.328750000000000000e+02  5.006144376944528631e+04  2.274744822288255648e+02
1.330000000000000000e+02  4.991678231178368878e+04  2.224529757705628015e+02
1.331250000000000000e+02  4.945226304819526558e+04  2.233205313517359798e+02
1.332500000000000000e+02  4.769126765684215206e+04  2.157269320126719663e+02
1.333750000000000000e+02  4.781397165462128032e+04  2.147581929280058546e+02
1.335000000000000000e+02  4.679808094646909740e+04  2.124115647810769474e+02
1.336250000000000000e+02  4.773545297743076662e+04  2.147915235148711588e+02
1.337500000000000000e+02  4.988581997947157652e+04  2.225693035231887507e+02
1.338750000000000000e+02  4.960834619423279219e+04  2.116365436561826243e+02
1.340000000000000000e+02  4.868119374151585362e+04  2.260333068766458382e+02
1.341250000000000000e+02  4.816847383984317275e+04  2.197595854099398878e+02
1.342500000000000000e+02  4.695545150255673070e+04  2.152991277451931467e+02
1.343750000000000000e+02  4.671009397088086553e+04  2.149232396873613595e+02
1.345000000000000000e+02  4.718266196362060873e+04  2.176119269609040714e+02
1.346250000000000000e+02  4.827463036824056326e+04  2.198735120814103539e+02
1.347500000000000000e+02  4.951235942124321446e+04  2.236991506405715029e+02
1.348750000000000000e+02  4.884794488752856705e+04  2.217545170669640129e+02
1.350000000000000000e+02  4.785836747318962443e+04  2.170274541978587308e+02
1.351250000000000000e+02  4.741219128957139037e+04  2.163069376133273920e+02
1.352500000000000000e+02  4.708358282595188939e+04  2.106843079468582403e+02
1.353750000000000000e+02  4.569984909543566755e+04  2.216064478286396309e+02
1.355000000000000000e+02  4.374934121847528877e+04  2.136657846975070640e+02
1.356250000000000000e+02  4.175765712167417223e+04  2.190080218259625440e+02
1.357500000000000000e+02  3.630349559662040701e+04  2.140951663498449875e+02
1.358750000000000000e+02  2.985166032287339476e+04  2.196459941189712595e+02
